Energy (keV),Intensity (cps),slope,offset,liveTime
-0.016726846347951956,0.0,20.061133238820258,-16.726846347951955,49.21039581298828
0.0033342868908683024,0.0
0.02339542012968856,0.0
0.043456553368508816,0.0
0.06351768660732908,0.0
0.08357881984614934,0.0
0.1036399530849696,0.0
0.12370108632378987,0.0
0.14376221956261012,0.0
0.16382335280143037,0.0
0.18388448604025062,0.0
0.20394561927907087,0.0
0.22400675251789112,0.0
0.2440678857567114,0.0
0.2641290189955317,0.0
0.2841901522343519,0.0
0.30425128547317215,0.0
0.32431241871199246,0.0
0.34437355195081265,0.0
0.36443468518963296,0.0
0.3844958184284532,0.0
0.40455695166727346,0.020320909504573957
0.4246180849060937,0.0
0.444679218144914,0.06096272851372187
0.4647403513837342,0.10160454752286978
0.48480148462255446,0.1422463665320177
0.5048626178613748,0.4064181900914791
0.524923751100195,0.8737991086966801
0.5449848843390153,2.0524118599619694
0.5650460175778355,3.6577637108233123
0.5851071508166557,4.856697371593175
0.605168284055476,7.518736516692364
0.6252294172942963,11.298425684543119
0.6452905505331166,13.879181191624012
0.6653516837719368,18.32946037312571
0.6854128170107571,20.564760418628843
0.7054739502495773,24.87279323359852
0.7255350834883975,28.063176025816635
0.7455962167272178,28.489915125412686
0.7656573499660381,32.41185065979546
0.7857184832048584,34.03752342016138
0.8057796164436786,37.69528713098469
0.8258407496824988,38.9348626107637
0.8459018829213191,39.625773533919215
0.8659630161601393,39.50384807689177
0.8860241493989596,38.77229533472711
0.9060852826377799,37.735928949993834
0.9261464158766002,40.743423556670784
0.9462075491154203,38.751974425222535
0.9662686823542406,40.15411718103814
0.9863298155930609,39.4022435293689
1.0063909488318812,37.878175316525855
1.0264520820707015,37.715608040489265
1.0465132153095218,38.56908623968137
1.0665743485483419,38.995825339277424
1.0866354817871622,40.032191724010694
1.1066966150259825,37.02469711733375
1.1267577482648028,38.14234714008531
1.1468188815036229,39.11775079630487
1.1668800147424432,36.31346528467366
1.1869411479812635,36.02897255160963
1.2070022812200836,37.0653389363429
1.2270634144589039,35.54127072349985
1.2471245476977242,35.68351709003187
1.2671856809365445,36.61827892724227
1.2872468141753648,35.114531623903794
1.307307947414185,35.70383799953644
1.3273690806530054,36.41506983219653
1.3474302138918255,33.366933406510434
1.3674913471306458,34.220411605702544
1.387552480369466,34.301695243720836
1.4076136136082862,34.83003889083976
1.4276747468471065,34.26105342471169
1.4477358800859268,35.86640527557304
1.467797013324747,35.21613617142667
1.4878581465635672,35.33806162845411
1.5079192798023875,35.33806162845411
1.5279804130412078,33.48885886353788
1.548041546280028,34.97228525737178
1.5681026795188484,34.99260616687636
1.5881638127576687,32.797947940382365
1.608224945996489,32.310246112272594
1.6282860792353093,32.26960429326344
1.6483472124741294,33.102761582950976
1.6684083457129495,34.789397071830614
1.6884694789517698,37.959458954544154
1.70853061219059,44.096373624925484
1.7285917454294104,46.291031851419476
1.7486528786682307,45.600120928263955
1.768714011907051,42.85679814514648
1.788775145145871,36.49635347021483
1.8088362783846914,33.22468703997842
1.8288974116235117,32.940194306914385
1.848958544862332,33.12308249245555
1.8690196781011523,33.30597067799671
1.8890808113399726,31.802223374658244
1.9091419445787927,31.659977008126223
1.9292030778176128,31.151954270511876
1.949264211056433,31.355163365557615
1.9693253442952534,31.39580518456676
1.9893864775340737,30.786177899429543
2.009447610772894,30.643931532897525
2.0295087440117143,31.090991541998154
2.049569877250535,29.912378790732863
2.069631010489355,28.591519672935558
2.0896921437281755,28.85569149649502
2.1097532769669955,30.847140627943265
2.129814410205816,29.99366242875116
2.149875543444636,29.201146958072776
2.1699366766834562,29.140184229559054
2.1899978099222768,28.40863148739439
2.210058943161097,28.225743301853225
2.2301200763999174,28.469594215908113
2.2501812096387375,27.555153288202284
2.270242342877558,29.505960600641384
2.290303476116378,29.28243059609107
2.3103646093551977,27.636436926220583
2.3304257425940182,27.920929659284617
2.3504868758328383,27.148735098110805
2.370548009071659,27.859966930770895
2.390609142310479,26.86424236504677
2.4106702755492995,26.579749631982736
2.4307314087881196,27.10809327910166
2.4507925420269396,25.705950523286056
2.47085367526576,25.868517799322646
2.4909148085045802,27.209697826624527
2.5109759417434008,26.82360054603762
2.531037074982221,26.39686144644157
2.5510982082210414,24.771188686075654
2.5711593414598615,25.380815971212872
2.5912204746986816,24.567979591029914
2.611281607937502,25.56370415675404
2.631342741176322,23.83642684886525
2.6514038744151427,23.247120473232606
2.6714650076539628,24.628942319543636
2.6915261408927833,25.197927785671705
2.7115872741316034,23.81610593936068
2.7316484073704235,21.66208953187584
2.751709540609244,23.06423228769144
2.771770673848064,22.637493188095387
2.7918318070868846,22.65781409759996
2.8118929403257042,22.45460500255422
2.8319540735645248,22.65781409759996
2.852015206803345,22.921985921159422
2.872076340042165,22.25139590750848
2.8921374732809855,23.389366839764623
2.9121986065198056,25.62466688526776
2.932259739758626,25.11664414765341
2.952320872997446,26.39686144644157
2.9723820062362667,26.15301053238668
2.9924431394750868,25.07600232864426
3.0125042727139073,22.982948649673144
3.0325654059527274,20.361551323583104
3.0526265391915475,20.34123041407853
3.072687672430368,20.971178608720322
3.092748805669188,19.24390130083154
3.1128099389080086,19.40646857686813
3.1328710721468287,21.21502952277521
3.1529322053856492,19.609677671913868
3.1729933386244693,20.70700678516086
3.1930544718632894,21.479201346334673
3.21311560510211,25.78723416130435
3.23317673834093,32.797947940382365
3.2532378715797505,47.61189096921678
3.2732990048185706,63.401237654270744
3.293360138057391,77.17881429837189
3.3134212712962112,85.00236445763286
3.333482404535031,78.21518068310516
3.3535435377738514,64.23439494395828
3.3736046710126715,46.23006912290575
3.393665804251492,33.671747049079045
3.413726937490312,24.730546867066504
3.4337880707291326,20.930536789711176
3.4538492039679527,18.471706739657726
3.473910337206773,18.715557653712615
3.4939714704455933,17.638549449970196
3.5140326036844134,19.061013115290372
3.534093736923234,21.093104065747767
3.554154870162054,23.81610593936068
3.5742160034008745,24.832151414589376
3.5942771366396946,26.010764165854663
3.6143382698785147,27.819325111761746
3.6343994031173352,27.06745146009251
3.6544605363561553,25.970122346845518
3.674521669594976,27.33162328365197
3.694582802833796,26.60007054148731
3.7146439360726164,23.3284041112509
3.7347050693114365,20.158342228537364
3.7547662025502566,18.512348558666876
3.774827335789077,17.67919126897934
3.7948884690278972,15.240682128430468
3.8149496022667178,13.838539372614864
3.8350107355055374,13.777576644101142
3.855071868744358,14.02142755815603
3.875133001983178,13.879181191624012
3.895194135221998,13.75725573459657
3.9152552684608186,14.041748467660604
3.9353164016996387,14.692017571806971
3.9553775349384592,13.330516635000516
3.9754386681772793,13.696293006082847
3.9954998014161,14.956189395366431
4.01556093465492,15.179719399916745
4.0356220678937405,14.346562110229213
4.0556832011325605,14.48880847676123
4.075744334371381,13.432121182523385
4.095805467610201,13.797897553605717
4.115866600849021,11.90805296968034
4.135927734087841,11.582918417607155
4.155988867326662,11.786127512652895
4.176050000565481,11.50163477958886
4.196111133804302,11.237462956029399
4.216172267043122,10.79040294692877
4.236233400281942,11.420351141570563
4.256294533520762,12.355112978780966
4.276355666759583,11.257783865533971
4.296416799998403,10.241738390305274
4.316477933237223,9.95724565724124
4.3365390664760435,10.302701118818996
4.3566001997148645,11.03425386098366
4.376661332953684,10.526231123369309
4.396722466192505,11.176500227515676
4.416783599431325,11.298425684543119
4.436844732670146,12.111262064726079
4.456905865908965,13.046023901936481
4.476966999147786,13.960464829642309
4.497028132386606,16.13480214663172
4.517089265625426,15.992555780099703
4.537150398864246,16.58186215573235
4.557211532103067,14.99683121437558
4.577272665341887,13.41180027301881
4.597333798580707,12.985061173422759
4.617394931819527,12.68024753085415
4.637456065058347,12.517680254817558
4.6575171982971675,13.167949358963924
4.677578331535988,11.521955689093433
4.6976394647748085,12.212866612248948
4.717700598013629,10.668477489901328
4.737761731252449,9.24601382458115
4.757822864491269,8.961521091517115
4.77788399773009,8.575423810930209
4.797945130968909,9.489864738636038
4.81800626420773,9.449222919626889
4.83806739744655,9.388260191113169
4.858128530685371,9.124088367553707
4.87818966392419,8.677028358453079
4.898250797163011,9.063125639039985
4.918311930401831,8.453498353902766
4.938373063640651,8.677028358453079
4.958434196879471,8.47381926340734
4.978495330118292,8.961521091517115
4.9985564633571125,7.823550159260973
5.0186175965959325,8.108042892325008
5.038678729834753,7.864191978270121
5.058739863073574,7.620341064215234
5.078800996312393,7.396811059664921
5.098862129551214,6.62461649849111
5.118923262790034,7.274885602637476
5.138984396028854,7.559378335701512
5.159045529267674,7.356169240655772
5.179106662506494,7.19360196461918
5.199167795745315,7.417131969169494
5.219228928984134,8.2706101683616
5.239290062222955,7.70162470223353
5.259351195461775,8.311251987370749
5.279412328700596,7.60002015471066
5.2994734619394155,7.29520651214205
5.3195345951782365,8.189326530343305
5.3395957284170565,7.721945611738104
5.359656861655877,8.534781991921061
5.379717994894697,8.859916543994245
5.399779128133518,8.920879272507968
5.419840261372338,9.08344654854456
5.439901394611158,8.575423810930209
5.459962527849978,8.108042892325008
5.480023661088799,6.990392869573441
5.500084794327618,6.72622104601398
5.520145927566439,5.4866455662349685
5.540207060805259,5.75081738979443
5.56026819404408,5.710175570785282
5.580329327282899,5.466324656730395
5.60039046052172,5.222473742675507
5.62045159376054,5.54760829474869
5.64051272699936,6.014989213353891
5.6605738602381805,5.75081738979443
5.680634993477001,5.466324656730395
5.700696126715822,5.669533751776134
5.720757259954641,5.872742846821874
5.740818393193462,5.974347394344743
5.760879526432282,6.543332860472814
5.780940659671102,8.148684711334157
5.801001792909922,9.733715652690925
5.821062926148743,11.19682113702025
5.841124059387563,15.321965766448763
5.861185192626383,18.32946037312571
5.881246325865203,21.336954979802655
5.901307459104024,21.98722408394902
5.921368592342843,20.483476780610548
5.941429725581664,16.886675798300956
5.9614908588204845,14.305920291220065
5.981551992059305,10.912328403956215
6.001613125298125,8.819274724985098
6.021674258536946,7.19360196461918
6.041735391775766,6.157235579885909
6.061796525014587,6.116593760876761
6.081857658253406,5.689854661280708
6.101918791492227,6.360444674931649
6.121979924731047,5.6492128422715595
6.142041057969867,6.705900136509405
6.162102191208687,6.583974679481962
6.182163324447507,8.026759254306713
6.202224457686328,10.770082037424197
6.222285590925147,18.857804020244632
6.242346724163968,35.561591633004426
6.262407857402788,70.35098870483503
6.2824689906416085,137.75544553150687
6.3025301238804285,255.41351156299007
6.3225912571192495,414.0791729747035
6.34265239035807,618.3855971336901
6.36271352359689,820.2941539711369
6.38277465683571,969.4902715537189
6.402835790074531,1013.0379806220209
6.42289692331335,955.2656349005172
6.442958056552171,795.9090625656481
6.463019189790991,597.7801948960521
6.483080323029812,402.2930454620506
6.503141456268631,242.30652493253984
6.523202589507452,131.31371721855692
6.543263722746272,66.69322499401173
6.563324855985092,32.02575337920855
6.583385989223912,16.94763852681468
6.603447122462733,9.367939281608594
6.623508255701553,7.49841560718779
6.6435693889403735,6.970071960068867
6.663630522179194,6.746541955518554
6.683691655418014,5.8524219373173
6.703752788656834,5.913384665831021
6.723813921895654,6.096272851372187
6.743875055134475,6.136914670381335
6.763936188373295,6.644937407995684
6.783997321612115,6.299481946417926
6.804058454850935,6.238519217904205
6.824119588089756,7.051355598087163
6.844180721328575,6.929430141059719
6.864241854567396,8.514461082416489
6.884302987806216,13.046023901936481
6.904364121045037,18.105930368575397
6.9244252542838565,26.173331441891257
6.944486387522677,41.698506303385756
6.9645475207614975,63.3605958352616
6.984608654000318,93.4761837210402
7.004669787239138,130.09446264828247
7.024730920477959,152.65067219835956
7.044792053716779,174.3940453682537
7.064853186955599,172.7480516983832
7.084914320194419,159.9458787105016
7.10497545343324,134.66666728681162
7.125036586672059,99.49117293439409
7.14509771991088,69.11141322505603
7.1651588531497,41.75946903189948
7.18521998638852,25.3604950617083
7.20528111962734,14.102711196174326
7.22534225286616,9.449222919626889
7.245403386104981,6.096272851372187
7.2654645193438006,4.531562819519992
7.2855256525826215,4.0438609914102175
7.305586785821442,3.5155173442912946
7.325647919060263,3.59680098230959
7.345709052299082,3.251345520731833
7.365770185537903,3.4748755252821466
7.385831318776723,4.145465538933087
7.405892452015543,4.328353724474253
7.425953585254363,3.5764800728050163
7.446014718493184,4.47060009100627
7.466075851732004,3.6577637108233123
7.486136984970824,4.1251446294285135
7.506198118209644,3.5561591633004426
7.526259251448465,3.5764800728050163
7.546320384687284,3.5561591633004426
7.566381517926105,3.190382792218111
7.586442651164925,2.763643692622058
7.606503784403746,2.7433227831174842
7.626564917642566,2.6620391450991883
7.646626050881387,2.92621096865865
7.666687184120207,3.109099154199815
7.686748317359026,3.231024611227259
7.706809450597847,3.3935918872638506
7.726870583836667,3.210703701722685
7.746931717075488,3.9625773533919215
7.766992850314307,4.267390995960531
7.787053983553128,4.531562819519992
7.807115116791948,4.755092824070306
7.827176250030768,5.3240782901983765
7.847237383269588,5.181831923666359
7.867298516508409,6.279161036913353
7.887359649747229,6.340123765427075
7.9074207829860494,6.177556489390483
7.9274819162248695,6.401086493940796
7.9475430494636905,7.1732810551146065
7.96760418270251,6.62461649849111
7.987665315941331,7.1732810551146065
8.00772644918015,8.108042892325008
8.027787582418972,7.925154706783843
8.047848715657791,8.250289258857027
8.067909848896612,8.16900562083873
8.087970982135431,7.112318326600885
8.108032115374252,6.360444674931649
8.128093248613073,5.527287385244116
8.148154381851892,5.34439919970295
8.168215515090713,4.389316452987974
8.188276648329532,3.779689167850756
8.208337781568353,3.4951964347867204
8.228398914807174,2.8652482401449277
8.248460048045994,3.251345520731833
8.268521181284815,2.8246064211357798
8.288582314523634,3.1294200637043894
8.308643447762455,3.0887782446952414
8.328704581001276,3.3529500682547027
8.348765714240095,3.413912796768425
8.368826847478914,3.271666430236407
8.388887980717737,3.759368258346182
8.408949113956556,4.206428267446809
8.429010247195375,4.57220463852914
8.449071380434196,4.836376462088602
8.469132513673017,6.502691041463666
8.489193646911838,8.47381926340734
8.509254780150657,12.192545702744374
8.529315913389476,19.182938572317816
8.5493770466283,27.51451146919314
8.569438179867118,33.95623978214308
8.589499313105938,43.91348543938432
8.609560446344759,49.66430282917875
8.62962157958358,54.33811201523076
8.649682712822399,52.36698379328708
8.66974384606122,47.327398236152746
8.689804979300039,40.15411718103814
8.70986611253886,29.831095152714568
8.72992724577768,22.19043317899476
8.7499883790165,16.500578517714054
8.770049512255321,9.936924747736665
8.79011064549414,7.396811059664921
8.810171778732961,5.974347394344743
8.830232911971782,5.019264647629767
8.850294045210601,4.409637362492549
8.87035517844942,4.429958271997123
8.890416311688243,4.551883729024566
8.910477444927063,5.222473742675507
8.930538578165882,5.059906466638915
8.950599711404703,4.551883729024566
8.970660844643524,4.734771914565732
8.990721977882343,4.9989437381251935
9.010783111121164,4.57220463852914
9.030844244359983,4.551883729024566
9.050905377598806,5.141190104657211
9.070966510837625,5.039585557134341
9.091027644076444,5.181831923666359
9.111088777315265,5.44600374722582
9.131149910554086,6.868467412545997
9.151211043792905,8.94120018201254
9.171272177031726,9.693073833681778
9.191333310270545,12.233187521753521
9.211394443509366,13.940143920137734
9.231455576748187,14.813943028834414
9.251516709987007,15.30164485694419
9.271577843225826,15.09843576189845
9.291638976464647,13.31019572549594
9.311700109703468,12.53800116432213
9.331761242942289,9.835320200213795
9.351822376181108,7.437452878674068
9.371883509419927,5.7304964802898555
9.39194464265875,5.100548285648063
9.412005775897569,4.206428267446809
9.432066909136388,4.511241910015419
9.45212804237521,5.44600374722582
9.47218917561403,6.035310122858465
9.49225030885285,6.340123765427075
9.51231144209167,7.478094697683216
9.53237257533049,9.91660383823209
9.552433708569312,10.627835670892178
9.572494841808131,11.176500227515676
9.59255597504695,10.32302202832357
9.612617108285772,10.770082037424197
9.632678241524593,8.94120018201254
9.652739374763412,7.396811059664921
9.672800508002233,5.710175570785282
9.692861641241052,4.755092824070306
9.712922774479873,4.348674633978827
9.732983907718694,3.759368258346182
9.753045040957513,3.4342337062729986
9.773106174196332,3.109099154199815
9.793167307435153,2.6010764165854665
9.813228440673974,2.6213973260900403
9.833289573912795,2.9465318781632237
9.853350707151614,2.885569149649502
9.873411840390434,3.3935918872638506
9.893472973629256,2.72300187361291
9.913534106868076,3.0481364256860934
9.933595240106895,2.7026809641083362
9.953656373345716,2.397867321539727
9.973717506584537,2.5807555070808923
9.993778639823356,2.1336954979802654
10.013839773062177,2.4994718690625968
10.033900906300996,2.1743373169894133
10.053962039539817,2.235300045503135
10.074023172778638,1.6459936698704905
10.094084306017457,1.7679191268979342
10.114145439256278,2.6010764165854665
10.1342065724951,2.5197927785671705
10.154267705733918,3.0684573351906677
10.17432883897274,3.0481364256860934
10.194389972211559,4.104823719923939
10.21445110545038,3.6577637108233123
10.2345122386892,4.348674633978827
10.25457337192802,4.429958271997123
10.274634505166839,5.019264647629767
10.29469563840566,4.348674633978827
10.31475677164448,3.9422564438873477
10.3348179048833,4.206428267446809
10.354879038122121,3.6984055298324603
10.37494017136094,3.779689167850756
10.395001304599763,4.755092824070306
10.415062437838582,5.44600374722582
10.435123571077401,6.807504684032275
10.455184704316222,7.762587430747251
10.475245837555043,9.002162910526263
10.495306970793862,10.424626575846439
10.515368104032683,12.639605711845
10.535429237271503,12.355112978780966
10.555490370510324,12.456717526303835
10.575551503749145,11.725164784139173
10.595612636987964,11.684522965130025
10.615673770226783,9.896282928727517
10.635734903465606,8.047080163811287
10.655796036704425,6.462049222454518
10.675857169943246,4.734771914565732
10.695918303182065,4.47060009100627
10.715979436420886,3.251345520731833
10.736040569659707,3.454554615777573
10.756101702898526,2.275941864512283
10.776162836137345,2.9058900591540757
10.796223969376166,2.8652482401449277
10.816285102614987,2.804285511631206
10.836346235853807,2.783964602126632
10.856407369092627,3.210703701722685
10.876468502331447,2.8652482401449277
10.896529635570268,3.0481364256860934
10.916590768809089,3.332629158750129
10.936651902047908,2.5604345975763185
10.956713035286729,2.8246064211357798
10.97677416852555,2.6823600546037625
10.996835301764369,2.4385091405488746
11.01689643500319,3.210703701722685
