Energy (keV),Intensity (cps),slope,offset,liveTime
-0.016753362679535415,0.0,20.051730854418228,-16.753362679535414,110.62820434570312
0.003298368174882814,0.0
0.023350099029301043,0.0
0.043401829883719274,0.0
0.0634535607381375,0.0
0.08350529159255572,0.0
0.10355702244697396,0.0
0.12360875330139219,0.0
0.14366048415581043,0.0
0.16371221501022865,0.0
0.18376394586464687,0.0
0.2038156767190651,0.0
0.2238674075734833,0.0
0.24391913842790156,0.0
0.2639708692823198,0.0
0.28402260013673797,0.0
0.3040743309911562,0.0
0.32412606184557446,0.0
0.34417779269999266,0.0
0.3642295235544109,0.0
0.3842812544088291,0.0
0.40433298526324735,0.0
0.42438471611766554,0.009039286192109659
0.4444364469720838,0.0
0.4644881778265021,0.045196430960548296
0.4845399086809203,0.1536678652658642
0.5045916395353385,0.2621392995711801
0.5246433703897568,0.7050643229845533
0.544695101244175,1.3106964978559006
0.5647468320985932,2.042878679416783
0.5847985629530115,3.44396803919378
0.6048502938074297,4.7727431094338995
0.624902024661848,7.249507526071946
0.6449537555162661,9.545486218867799
0.6650054863706844,12.094564925042723
0.6850572172251026,13.893382877272545
0.7051089480795208,16.234558001028947
0.725160678933939,18.23224024948518
0.7452124097883572,19.85027247787281
0.7652641406427755,20.94402610711808
0.7853158714971937,22.941708355574313
0.805367602351612,23.176729796569166
0.8254193332060301,23.547340530445663
0.8454710640604484,23.981226267666926
0.8655227949148666,25.861397795625734
0.8855745257692849,24.65013344588304
0.9056262566237031,24.62301558730671
0.9256779874781212,25.264804906946495
0.9457297183325396,25.300962051714937
0.9657814491869579,24.722447735419916
0.9858331800413761,24.60493701492249
1.0058849108957943,24.514544153001395
1.0259366417502125,24.378954860119748
1.0459883726046306,23.764283399056293
1.0660401034590488,24.31567985677498
1.086091834313467,24.36087628773553
1.1061435651678853,23.52926195806144
1.1261952960223034,23.646772678558868
1.1462470268767218,23.077297648455957
1.16629875773114,22.914590496997985
1.1863504885855582,22.408390470239844
1.2064022194399764,23.01402264511119
1.2264539502943947,23.447908382332454
1.2465056811488127,22.543979763121488
1.266557412003231,22.128172598284443
1.2866091428576494,22.47166547358461
1.3066608737120675,22.833236921269
1.3267126045664859,22.28184046355031
1.346764335420904,22.19144760162921
1.3668160662753224,21.766601150600057
1.3868677971297405,21.875072584905375
1.4069195279841589,21.847954726329046
1.4269712588385768,22.49878333216094
1.4470229896929951,23.04114050368752
1.4670747205474133,22.110094025900224
1.4871264514018316,22.571097621697817
1.5071781822562498,22.607254766466255
1.5272299131106681,21.405029702915673
1.5472816439650863,21.68524757487107
1.5673333748195046,20.618611804202132
1.5873851056739228,21.260401123841916
1.6074368365283411,21.414068989107783
1.627488567382759,20.736122524699557
1.6475402982371774,21.17000826192082
1.6675920290915955,20.916908248541752
1.687643759946014,21.44118684768411
1.707695490800432,21.757561864407947
1.7277472216548504,21.920269015865923
1.7477989525092685,21.9925833054028
1.767850683363687,21.1519296895366
1.787902414218105,21.124811830960272
1.8079541450725232,21.576776140565755
1.8280058759269413,21.405029702915673
1.8480576067813597,22.01066187778702
1.8681093376357778,22.607254766466255
1.8881610684901962,22.48974404596883
1.9082127993446145,23.00498335891908
1.9282645301990327,22.417429756431954
1.948316261053451,22.959786927958532
1.9683679919078692,22.01066187778702
1.9884197227622873,23.52926195806144
2.0084714536167056,22.842276207461108
2.028523184471124,23.00498335891908
2.0485749153255424,22.20952617401343
2.0686266461799607,22.697647628387355
2.0886783770343786,22.51686190454516
2.1087301078887966,22.146251170668663
2.1287818387432154,22.851315493653217
2.1488335695976333,22.833236921269
2.1688853004520516,22.426469042624063
2.1889370313064695,22.29087974974242
2.2089887621608884,22.1824083154371
2.2290404930153063,23.881794119553717
2.2490922238697246,23.185769082761276
2.2691439547241425,22.52590119073727
2.289195685578561,22.97786550034275
2.3092474164329793,23.33039766183503
2.329299147287397,22.607254766466255
2.3493508781418155,23.34847623421925
2.369402608996234,23.375594092795577
2.3894543398506523,22.724765486963683
2.40950607070507,23.059219076071738
2.4295578015594885,23.31231908945081
2.449609532413907,23.366554806603467
2.469661263268325,22.50782261835305
2.489712994122743,24.13489413293279
2.509764724977161,22.923629783190094
2.52981645583158,22.914590496997985
2.549868186685998,23.728126254287854
2.569919917540416,21.757561864407947
2.5899716483948345,23.05017978987963
2.610023379249253,23.402711951371906
2.630075110103671,23.212886941337604
2.6501268409580887,23.01402264511119
2.6701785718125075,23.773322685248402
2.6902303026669254,23.393672665179796
2.710282033521344,23.185769082761276
2.7303337643757617,24.82187988353312
2.7503854952301805,24.378954860119748
2.7704372260845984,24.59589772873038
2.7904889569390168,23.899872691937937
2.8105406877934347,22.661490483618916
2.830592418647853,24.82187988353312
2.8506441495022714,23.1134547932244
2.8706958803566893,23.82755840240106
2.8907476112111077,23.899872691937937
2.910799342065526,23.963147695282704
2.9308510729199444,23.945069122898484
2.9509028037743623,24.017383412435365
2.9709545346287807,24.6139763011146
2.991006265483199,24.378954860119748
3.011057996337617,24.10777627435646
3.0311097271920353,24.180090563893337
3.0511614580464532,23.83659768859317
3.071213188900872,24.63205487349882
3.09126491975529,24.32471914296709
3.1113166506097083,23.84563697478528
3.131368381464126,23.737165540479964
3.151420112318545,23.755244112864183
3.171471843172963,24.45126914965663
3.1915235740273813,23.32135837564292
3.2115753048817997,23.80947983001684
3.2316270357362176,23.167690510377057
3.251678766590636,23.475026240908782
3.271730497445054,23.240004799913933
3.2917822282994726,22.435508328816173
3.3118339591538906,22.51686190454516
3.331885690008309,22.30895832212664
3.351937420862727,21.631011857718413
3.3719891517171456,22.064897594939676
3.3920408825715636,21.72140471963951
3.4120926134259815,21.621972571526303
3.4321443442804,20.64572966277846
3.452196075134818,20.63669037658635
3.4722478059892365,20.916908248541752
3.4922995368436545,20.229922497941416
3.512351267698073,19.04577600677505
3.532402998552491,18.765558134819653
3.5524547294069095,18.159925959948303
3.5725064602613275,18.2503188218694
3.5925581911157454,17.265036626929447
3.612609921970164,17.301193771697886
3.632661652824582,17.301193771697886
3.6527133836790004,16.641325879673882
3.6727651145334184,16.008575846226204
3.692816845387837,15.683161543310257
3.712868576242255,15.493336533275954
3.7329203070966734,14.82442935505984
3.7529720379510914,14.55325076929655
3.7730237688055097,13.73067572581457
3.793075499659928,13.667400722469804
3.813127230514346,12.899061396140484
3.833178961368765,14.04705074253841
3.8532306922231827,12.826747106603605
3.873282423077601,13.314868560977528
3.893334153932019,12.429018514150782
3.913385884786438,13.459497140051282
3.9334376156408557,12.862904251372044
3.9534893464952736,13.016572116637908
3.973541077349692,12.682118527529852
3.9935928082041103,12.492293517495549
4.013644539058529,11.823386339279434
4.033696269912947,11.172557733447539
4.0537480007673645,11.507011322555595
4.073799731621784,10.865222002915809
4.093851462476201,10.467493410462986
4.11390319333062,9.879939807975857
4.133954924185037,10.196314824699694
4.154006655039455,9.753389801286321
4.174058385893874,9.057364764493878
4.194110116748292,9.373739781217717
4.2141618476027105,9.545486218867799
4.234213578457128,9.635879080788897
4.254265309311547,9.129679054030756
4.274317040165966,9.437014784562484
4.294368771020383,9.500289787907251
4.314420501874801,10.711554137649946
4.334472232729219,12.48325423130344
4.354523963583638,15.61988653996549
4.3745756944380565,23.10441550703229
4.394627425292474,34.63854468816421
4.414679156146892,50.41209909339557
4.434730887001312,65.63425704090824
4.454782617855729,76.30965403378974
4.474834348710147,78.31637556843809
4.494886079564566,69.75617154451024
4.514937810418983,55.80855295008503
4.5349895412734025,42.07787722427046
4.55504127212782,28.247769350342683
4.575093002982238,19.04577600677505
4.595144733836657,13.25159355763276
4.615196464691075,10.187275538507585
4.635248195545493,8.677714744425272
4.655299926399912,7.177193236535069
4.675351657254329,7.303743243224604
4.695403388108748,8.406536158661982
4.715455118963166,11.317186312521292
4.735506849817584,16.071850849570975
4.755558580672003,25.16537275883329
4.77561031152642,37.30513411483656
4.795662042380839,49.52624904656882
4.815713773235258,59.63217100934742
4.835765504089675,63.84447837487052
4.855817234944094,61.21404609296661
4.875868965798511,54.58824931415023
4.89592069665293,46.82350247512803
4.915972427507349,37.946923434476346
4.936024158361766,30.064665874956724
4.9560758892161845,23.366554806603467
4.976127620070604,18.467261690480033
4.996179350925021,14.065129314922629
5.0162310817794395,11.371422029673951
5.036282812633857,9.292386205488729
5.056334543488275,9.735311228902102
5.076386274342695,11.055047012950112
5.096438005197112,14.092247173498958
5.1164897360515305,18.078572384219317
5.136541466905949,20.808436814236433
5.156593197760367,22.589176194082036
5.1766449286147855,21.7123654334474
5.196696659469204,18.991540289622392
5.216748390323621,14.887704358404608
5.236800121178041,11.877622056432092
5.256851852032458,8.524046879159409
5.276903582886876,6.481168199742625
5.296955313741295,5.215668132847273
5.317007044595712,4.203268079330991
5.3370587754501315,4.130953789794114
5.35711050630455,3.733225197341289
5.377162237158967,3.760343055917618
5.397213968013386,4.067678786449346
5.417265698867803,4.700428819897023
5.437317429722222,4.546760954631158
5.457369160576641,5.2608645638078215
5.477420891431058,6.553482489279503
5.497472622285477,8.063043283361816
5.517524353139896,8.524046879159409
5.537576083994313,8.858500468267465
5.557627814848732,8.47885044819886
5.577679545703149,7.7376289804458676
5.597731276557568,6.1376753244424584
5.617783007411987,4.9625681194682025
5.637834738266404,4.411171661749513
5.657886469120823,3.3535751772726834
5.677938199975241,3.3354966048884642
5.697989930829659,3.1004751638936128
5.718041661684078,3.543400187306986
5.738093392538495,3.6880287663807407
5.7581451233929135,4.338857372212636
5.778196854247333,4.474446665094281
5.79824858510175,4.872175257547106
5.818300315956169,5.089118126157738
5.838352046810587,4.456368092710062
5.858403777665004,4.085757358833566
5.878455508519424,3.6157144768438636
5.898507239373842,3.0823965915093936
5.9185589702282595,3.001043015780407
5.938610701082678,2.756982288593446
5.958662431937096,2.6033144233275816
5.978714162791515,2.5129215614064853
5.998765893645933,2.4406072718696077
6.01881762450035,2.015760820840454
6.038869355354769,2.088075110377331
6.058921086209188,2.060957251801002
6.0789728170636055,1.7536215212692738
6.099024547918024,1.8078572384219318
6.119076278772441,1.6270715145797385
6.139128009626861,1.690346517924506
6.159179740481279,1.717464376500835
6.179231471335696,1.6361108007718483
6.199283202190115,1.563796511234971
6.219334933044533,1.5999536560034096
6.2393866638989515,1.5909143698113
6.25943839475337,1.618032228387629
6.279490125607787,1.7626608074613834
6.299541856462206,1.7897786660377124
6.319593587316625,2.033839393224673
6.339645318171042,2.2055858308747567
6.359697049025461,2.6033144233275816
6.379748779879879,2.811218005746104
6.399800510734297,3.2270251705831483
6.419852241588716,2.7389037162092267
6.439903972443134,2.64851085428813
6.459955703297552,2.3502144099485114
6.48000743415197,1.9434465313035767
6.500059165006388,1.5999536560034096
6.520110895860807,1.2926179254716812
6.540162626715225,1.2293429221269137
6.5602143575696426,1.111832201629488
6.580266088424061,1.3016572116637908
6.60031781927848,1.3287750702401198
6.620369550132898,1.2203036359348038
6.640421280987316,1.138950060205817
6.6604730118417335,0.9039286192109659
6.680524742696153,1.1479893463979267
6.700576473550571,1.030478625900501
6.7206282044049885,1.1208714878215977
6.740679935259407,1.1027929154373783
6.760731666113825,1.1660679187821459
6.780783396968244,1.2655000668953522
6.800835127822662,1.1570286325900363
6.8208868586770794,0.9491250501715142
6.840938589531498,0.9852821949399528
6.860990320385917,1.2022250635505847
6.8810420512403345,0.8496929020583079
6.901093782094753,1.0756750568610494
6.921145512949171,0.9581643363636239
6.941197243803589,0.9943214811320624
6.961248974658008,0.9310464777872949
6.981300705512425,1.0666357706689398
7.001352436366844,1.0485571982847204
7.021404167221262,1.2293429221269137
7.0414558980756805,1.1841464911663653
7.061507628930099,1.2203036359348038
7.081559359784517,1.2022250635505847
7.101611090638935,1.1751072049742557
7.121662821493353,0.9943214811320624
7.141714552347772,1.003360767324172
7.16176628320219,0.8496929020583079
7.181818014056608,0.9400857639794045
7.201869744911026,0.9672036225557334
7.221921475765445,1.0214393397083914
7.241973206619863,0.741221467752992
7.262024937474281,1.003360767324172
7.282076668328699,0.8768107606346369
7.302128399183117,0.8587321882504175
7.322180130037536,0.7231428953687727
7.342231860891954,0.9039286192109659
7.362283591746372,0.9943214811320624
7.38233532260079,1.0395179120926108
7.402387053455209,1.0485571982847204
7.422438784309627,0.9762429087478431
7.442490515164045,1.138950060205817
7.462542246018463,1.0666357706689398
7.482593976872881,1.003360767324172
7.5026457077273,1.030478625900501
7.522697438581718,0.8768107606346369
7.542749169436136,0.79545718490565
7.562800900290554,0.8858500468267465
7.582852631144973,0.822575043481979
7.602904361999391,0.79545718490565
7.622956092853809,0.8587321882504175
7.643007823708227,0.8316143296740885
7.663059554562645,0.8677714744425272
7.6831112854170645,0.7864178987135403
7.703163016271482,0.79545718490565
7.7232147471259,0.7321821815608823
7.743266477980318,0.6779464644082244
7.763318208834737,0.7502607539451017
7.783369939689155,0.8677714744425272
7.803421670543573,0.6960250367924438
7.823473401397991,0.822575043481979
7.84352513225241,0.9220071915951852
7.863576863106828,0.7502607539451017
7.883628593961246,0.7593000401372113
7.903680324815664,0.9220071915951852
7.923732055670082,0.8316143296740885
7.943783786524501,1.003360767324172
7.963835517378919,0.9581643363636239
7.983887248233337,1.1299107740137073
8.003938979087756,1.030478625900501
8.023990709942174,1.1570286325900363
8.044042440796591,1.2835786392795716
8.064094171651009,1.3468536426243392
8.084145902505428,1.2474214945111328
8.104197633359847,1.0666357706689398
8.124249364214265,0.9310464777872949
8.144301095068682,0.7593000401372113
8.164352825923102,0.8858500468267465
8.184404556777519,0.714103609176663
8.204456287631938,0.8044964710977597
8.224508018486356,0.714103609176663
8.244559749340775,0.7773786125214307
8.264611480195192,0.8406536158661982
8.28466321104961,0.6779464644082244
8.30471494190403,0.5604357439107989
8.324766672758447,0.741221467752992
8.344818403612866,0.7050643229845533
8.364870134467283,0.822575043481979
8.3849218653217,0.5965928886792374
8.40497359617612,0.7321821815608823
8.425025327030538,0.6508286058318954
8.445077057884957,0.6960250367924438
8.465128788739376,0.7502607539451017
8.485180519593792,0.6598678920240051
8.505232250448211,0.7502607539451017
8.52528398130263,0.6689071782161148
8.545335712157048,0.768339326329321
8.565387443011467,0.5694750301029085
8.585439173865883,0.6056321748713471
8.605490904720302,0.7502607539451017
8.625542635574721,0.6327500334476761
8.645594366429139,0.6960250367924438
8.665646097283558,0.5423571715265795
8.685697828137974,0.5965928886792374
8.705749558992393,0.6689071782161148
8.725801289846812,0.741221467752992
8.74585302070123,0.5513964577186892
8.765904751555649,0.6960250367924438
8.785956482410068,0.7231428953687727
8.806008213264484,0.6779464644082244
8.826059944118903,0.7321821815608823
8.84611167497332,0.6417893196397858
8.86616340582774,0.6689071782161148
8.886215136682159,0.9129679054030755
8.906266867536575,0.8587321882504175
8.926318598390994,0.8316143296740885
8.946370329245411,0.6960250367924438
8.96642206009983,0.7321821815608823
8.98647379095425,0.6417893196397858
9.006525521808667,0.6960250367924438
9.026577252663085,0.6689071782161148
9.046628983517502,0.7321821815608823
9.066680714371921,0.6327500334476761
9.08673244522634,0.6689071782161148
9.106784176080758,0.6417893196397858
9.126835906935176,0.5604357439107989
9.146887637789593,0.5062000267581409
9.166939368644012,0.6146714610634568
9.186991099498432,0.6869857506003341
9.207042830352849,0.7050643229845533
9.227094561207267,0.8587321882504175
9.247146292061686,0.7593000401372113
9.267198022916103,0.6237107472555664
9.287249753770523,0.741221467752992
9.30730148462494,0.8135357572898693
9.32735321547936,0.768339326329321
9.347404946333777,0.768339326329321
9.367456677188194,0.6327500334476761
9.387508408042613,0.768339326329321
9.407560138897031,0.7050643229845533
9.42761186975145,0.7231428953687727
9.447663600605868,0.6689071782161148
9.467715331460285,0.6960250367924438
9.487767062314704,0.6689071782161148
9.507818793169124,0.822575043481979
9.527870524023541,0.6960250367924438
9.547922254877959,0.6146714610634568
9.567973985732376,0.5965928886792374
9.588025716586795,0.6960250367924438
9.608077447441215,0.6508286058318954
9.628129178295632,0.8135357572898693
9.648180909150051,0.741221467752992
9.668232640004467,0.8496929020583079
9.688284370858886,0.8496929020583079
9.708336101713305,0.8587321882504175
9.728387832567723,0.741221467752992
9.748439563422142,0.5965928886792374
9.768491294276558,0.79545718490565
9.788543025130977,0.7050643229845533
9.808594755985396,0.6327500334476761
9.828646486839814,0.6508286058318954
9.848698217694233,0.48812145437392157
9.868749948548652,0.6598678920240051
9.888801679403068,0.5875536024871278
9.908853410257487,0.6689071782161148
9.928905141111905,0.6146714610634568
9.948956871966324,0.6598678920240051
9.969008602820743,0.4610035957975926
9.989060333675159,0.5333178853344699
10.009112064529578,0.6056321748713471
10.029163795383996,0.5694750301029085
10.049215526238415,0.5604357439107989
10.069267257092834,0.4338857372212636
10.08931898794725,0.47908216818181193
10.109370718801669,0.6327500334476761
10.129422449656087,0.48812145437392157
10.149474180510506,0.47908216818181193
10.169525911364925,0.6598678920240051
10.189577642219342,0.4971607405660312
10.20962937307376,0.6508286058318954
10.22968110392818,0.6508286058318954
10.249732834782597,0.5423571715265795
10.269784565637016,0.48812145437392157
10.289836296491433,0.5694750301029085
10.30988802734585,0.6056321748713471
10.32993975820027,0.5333178853344699
10.349991489054688,0.5965928886792374
10.370043219909107,0.6056321748713471
10.390094950763524,0.48812145437392157
10.410146681617944,0.5242785991423602
10.430198412472361,0.5513964577186892
10.450250143326778,0.6146714610634568
10.470301874181198,0.6056321748713471
10.490353605035615,0.6056321748713471
10.510405335890034,0.5875536024871278
10.530457066744452,0.48812145437392157
10.55050879759887,0.47004288198970223
10.570560528453289,0.6779464644082244
10.590612259307708,0.5062000267581409
10.610663990162125,0.5965928886792374
10.630715721016543,0.5242785991423602
10.65076745187096,0.5062000267581409
10.67081918272538,0.44292502341337325
10.690870913579799,0.5152393129502505
10.710922644434216,0.6327500334476761
10.730974375288636,0.4971607405660312
10.751026106143051,0.7593000401372113
10.77107783699747,0.5242785991423602
10.79112956785189,0.6417893196397858
10.811181298706307,0.8316143296740885
10.831233029560726,0.8768107606346369
10.851284760415142,0.768339326329321
10.871336491269561,0.6689071782161148
10.89138822212398,0.6508286058318954
10.911439952978398,0.7050643229845533
