Energy (keV),Intensity (cps),slope,offset,liveTime
-0.017217458956643884,0.0,20.05594293969134,-17.217458956643885,50.46396255493164
0.002838483983047457,0.0
0.022894426922738798,0.0
0.042950369862430136,0.0
0.06300631280212149,0.0
0.08306225574181282,0.0
0.10311819868150417,0.0
0.12317414162119551,0.0
0.14323008456088684,0.0
0.16328602750057816,0.0
0.1833419704402695,0.0
0.20339791337996088,0.0
0.2234538563196522,0.0
0.24350979925934355,0.0
0.2635657421990349,0.0
0.2836216851387262,0.0
0.3036776280784176,0.0
0.32373357101810896,0.0
0.3437895139578002,0.0
0.3638454568974916,0.0
0.3839013998371829,0.0
0.4039573427768743,0.0
0.42401328571656566,0.0
0.4440692286562569,0.0
0.4641251715959483,0.0990806061762855
0.48418111453563967,0.1783450911173139
0.504237057475331,0.3566901822346278
0.5242930004150224,0.7331964857045127
0.5443489433547137,1.5456574563500538
0.5644048862944051,2.536463518112909
0.5844608292340963,4.181201580639248
0.6045167721737876,5.6872267945187875
0.624572715113479,8.778541707218896
0.6446286580531704,10.403463648509977
0.6646846009928618,13.237168985151742
0.684740543932553,16.645541837615962
0.7047964868722444,18.72623456731796
0.7248524298119358,22.431849238311038
0.7449083727516271,24.294564634425203
0.7649643156913185,26.91029263747914
0.7850202586310097,27.286798940949026
0.805076201570701,28.63429518494651
0.8251321445103924,27.88128257800674
0.8451880874500838,30.39792997488439
0.8652440303897752,29.902526944002965
0.8852999733294665,31.666161733940847
0.9053559162691578,29.625101246709363
0.9254118592088492,29.961975307708734
0.9454678021485405,30.833884642060045
0.9655237450882319,30.021423671414507
0.9855796880279232,30.39792997488439
1.0056356309676144,30.576275066001706
1.0256915739073058,31.36891991541199
1.0457475168469974,29.94215918647348
1.0658034597866886,30.437562217354905
1.0858594027263797,30.87351688453056
1.1059153456660713,29.743997974120905
1.1259712886057625,29.684549610415136
1.146027231545454,29.94215918647348
1.1660831744851452,30.53664282353119
1.1861391174248366,29.44675615559205
1.206195060364528,28.673927427417023
1.2262510033042193,28.49558233629971
1.2463069462439107,27.207534456008
1.266362889183602,30.27903324747285
1.2864188321232932,28.733375791122793
1.3064747750629846,27.86146645677148
1.326530718002676,26.831028152538114
1.3465866609423673,24.94849663518869
1.3666426038820587,27.18771833477274
1.3866985468217499,26.890476516243883
1.4067544897614415,27.66330524441891
1.4268104327011326,27.60385688071314
1.4468663756408242,29.803446337826678
1.4669223185805154,30.67535567217799
1.4869782615202065,30.06105591388502
1.507034204459898,29.38730779188628
1.5270901473995893,27.00937324365543
1.5471460903392809,26.613050818950285
1.567202033278972,27.30661506218428
1.5872579762186634,26.03838330312783
1.6073139191583548,25.424083544834858
1.6273698620980461,26.692315303891313
1.6474258050377375,25.20610621124703
1.6674817479774289,27.12826997106697
1.6875376909171202,30.47719445982542
1.7075936338568114,31.666161733940847
1.7276495767965028,34.8763733740525
1.7477055197361941,34.380970343171064
1.7677614626758855,32.022851916175476
1.787817405615577,30.695171793413248
1.8078733485552683,27.088637728596456
1.8279292914949594,25.62224475718743
1.847985234434651,26.7913959100676
1.8680411773743422,27.266982819713768
1.8880971203140335,28.356869487652908
1.908153063253725,30.12050427759079
1.928209006193416,29.52602064053308
1.9482649491331077,30.12050427759079
1.9683208920727988,29.72418185288565
1.9883768350124904,28.376685608888167
2.008432777952182,27.247166698478512
2.0284887208918727,27.12826997106697
2.0485446638315645,26.3752573641272
2.0686006067712555,24.39364524060149
2.088656549710947,25.166473968776515
2.1087124926506386,23.898242209720063
2.1287684355903296,25.305186817423316
2.148824378530021,23.779345482308518
2.1688803214697123,24.552174210483546
2.1889362644094037,24.215300149484175
2.208992207349095,24.53235808924829
2.2290481502887864,24.750335422836116
2.249104093228478,24.849416029012403
2.269160036168169,25.36463518112909
2.28921597910786,25.48353190854063
2.309271922047552,26.21672839424514
2.3293278649872433,23.779345482308518
2.3493838079269342,23.204677966486063
2.3694397508666256,23.42265530007389
2.389495693806317,23.343390815132864
2.409551636746009,22.788539420545664
2.4296075796856997,22.630010450663608
2.449663522625391,23.10559736030978
2.4697194655650825,22.847987784251437
2.4897754085047734,21.99589457113538
2.5098313514444652,22.55074596572258
2.5298872943841566,22.61019432942835
2.549943237323848,23.006516754133493
2.569999180263539,22.590378208193094
2.5900551232032303,21.777917237547552
2.610111066142922,22.253504147193723
2.6301670090826135,21.421227055312926
2.6502229520223044,21.540123782724468
2.6702788949619958,22.689458814369377
2.690334837901687,20.608766084667383
2.7103907808413785,20.648398327137897
2.73044672378107,21.10416911554881
2.7505026667207613,21.837365601253325
2.7705586096604526,22.392216995840524
2.7906145526001436,20.668214448373156
2.8106704955398354,20.450237114785327
2.8307264384795268,19.439614931787215
2.850782381419218,20.311524266138527
2.870838324358909,21.223065842960352
2.8908942672986004,20.608766084667383
2.9109502102382923,22.33276863213475
2.931006153177983,23.91805833095532
2.9510620961176746,24.651254816659833
2.971118039057366,23.64063263366172
2.9911739819970573,21.738284995077038
3.0112299249367487,21.04472075184304
3.03128586787644,21.67883663137127
3.0513418108161314,19.47924717425773
3.0713977537558224,18.131750930260246
3.0914536966955137,19.182005355728872
3.1115096396352055,18.7064184460827
3.131565582574897,18.746050688553215
3.151621525514588,19.360350446846187
3.1716774684542792,18.8451312947295
3.1917334113939706,20.628582205902642
3.2117893543336624,21.064536873078296
3.2318452972733533,24.03695505836686
3.2519012402130447,28.138892154065083
3.271957183152736,35.72846658716855
3.2920131260924275,43.29822489903676
3.312069069032119,44.15031811215282
3.33212501197181,43.159512050389964
3.3521809549115016,37.45246913463592
3.3722368978511925,28.07944379035931
3.3922928407908843,22.61019432942835
3.4123487837305757,19.34053432561093
3.432404726670267,17.95340583914293
3.452460669609958,16.209587170440308
3.4725166125496494,16.031242079322993
3.492572555489341,17.39855444455573
3.512628498429032,17.874141354201903
3.5326844413687235,21.79773335878281
3.552740384308415,27.74256972935994
3.5727963272481063,41.712935200216194
3.5928522701877976,70.68410444616208
3.612908213127489,129.02276536275897
3.6329641560671804,211.418197458958
3.6530200990068717,314.006257093884
3.6730760419465627,397.70955319161
3.6931319848862545,419.98287346003895
3.713187927825946,376.6252001972964
3.733243870765637,291.4753272493967
3.753299813705328,189.9375220399393
3.7733557566450195,106.94760630668257
3.7934116995847114,55.564403943660906
3.8134676425244023,31.70579397641136
3.8335235854640937,20.271892023668013
3.853579528403785,17.140944868497392
3.873635471343476,16.724806322556994
3.893691414283168,19.45943105302247
3.913747357222859,23.383023057603378
3.9338033001625505,32.26064537099856
3.9538592431022415,46.1913785993843
3.973915186041933,60.06266346406427
3.9939711289816247,75.67776699744687
4.014027071921316,78.76908191014697
4.034083014861007,69.53476941451716
4.054138957800698,58.457557644008446
4.074194900740389,41.5742223515694
4.094250843680081,29.347675549415765
4.114306786619773,20.529501599726355
4.134362729559464,16.169954927969794
4.154418672499155,12.880478802917114
4.174474615438847,11.572614801390147
4.1945305583785375,11.196108497920262
4.214586501318229,11.354637467802318
4.234642444257921,10.52236037592152
4.254698387197612,11.651879286331175
4.274754330137304,11.215924619155519
4.294810273076994,10.264750799863178
4.314866216016686,11.909488862389518
4.334922158956378,12.147282317212602
4.3549781018960685,13.3956979550338
4.37503404483576,17.022048141085847
4.395089987775451,23.561368148720693
4.415145930715143,38.83959762110391
4.435201873654834,61.786666011531636
4.455257816594525,93.55190835164876
4.475313759534217,125.61439251029475
4.495369702473908,144.14246586526014
4.5154256454135995,148.24440296095835
4.535481588353291,133.7191860955149
4.555537531292982,106.65036448815371
4.575593474232673,75.83629596732892
4.595649417172364,53.780953032487766
4.615705360112056,37.51191749834169
4.635761303051748,30.001607550179248
4.655817245991439,28.039811547888796
4.6758731889311305,24.53235808924829
4.695929131870821,21.52030766148921
4.715985074810512,17.240025474673676
4.736041017750204,13.435330197504314
4.756096960689895,13.375881833798543
4.776152903629587,12.048201711036317
4.796208846569278,14.62429747161974
4.81626478950897,15.615103533382594
4.8363207324486615,18.19119929396602
4.856376675388352,22.13460741978218
4.876432618328043,25.919486575716284
4.896488561267734,32.775864523115246
4.916544504207426,37.03633058869552
4.936600447147118,36.77872101263718
4.956656390086809,34.79710888911146
4.976712333026501,28.812640276063824
4.9967682759661916,21.67883663137127
5.0168242189058825,17.537267293202532
5.036880161845574,13.712755894797914
5.056936104785265,10.859234436920891
5.076992047724957,9.57118655662918
5.097047990664648,7.946264615338097
5.11710393360434,8.025529100279126
5.137159876544032,8.243506433866953
5.157215819483722,8.679461101042609
5.1772717624234135,8.758725585983639
5.197327705363104,8.857806192159924
5.217383648302796,9.29376085933558
5.237439591242488,9.808980011452265
5.257495534182179,9.610818799099693
5.277551477121871,10.482728133451007
5.297607420061561,11.354637467802318
5.317663363001253,11.850040498683745
5.3377193059409445,13.73257201603317
5.357775248880635,15.57547129091208
5.377831191820327,16.86351917120379
5.397887134760018,18.230831536436533
5.41794307769971,19.162189234493614
5.437999020639402,16.724806322556994
5.458054963579092,16.368116140322364
5.478110906518784,12.761582075505572
5.498166849458475,9.729715526511235
5.518222792398166,9.036151283277237
5.538278735337858,8.54074825239581
5.558334678277549,7.748103402985526
5.578390621217241,6.975274674810499
5.598446564156931,6.915826311104728
5.618502507096623,5.845755764400844
5.638558450036315,6.519503886399586
5.6586143929760055,6.063733097988672
5.678670335915697,6.598768371340614
5.698726278855388,6.222262067870729
5.71878222179508,6.8365618261637
5.738838164734771,7.4310454632214125
5.758894107674462,9.115415768218266
5.778950050614154,12.08783395350683
5.799005993553845,17.39855444455573
5.8190619364935365,26.553602455244512
5.839117879433228,36.48147919410832
5.859173822372919,45.042043567739384
5.87922976531261,52.1956633336672
5.899285708252301,54.157459335957654
5.919341651191993,48.252255207851036
5.939397594131685,43.00098308050791
5.959453537071376,34.36115422193581
5.9795094800110675,23.818977724779035
5.9995654229507585,17.537267293202532
6.01962136589045,12.880478802917114
6.039677308830141,10.641257103333063
6.059733251769832,10.145854072451636
6.079789194709524,10.344015284804206
6.099845137649215,12.107650074742088
6.119901080588907,11.61224704386066
6.1399570235285985,12.741765954270315
6.160012966468289,15.179148866206939
6.18006890940798,21.143801358019324
6.200124852347671,33.172186947820386
6.220180795287363,60.99402116212135
6.240236738227055,127.59600463382047
6.260292681166746,276.7915814140712
6.280348624106438,557.8436288937227
6.300404567046129,1020.3122662821528
6.3204605099858195,1691.1474184593114
6.340516452925511,2489.5785752702905
6.360572395865202,3318.8832489658002
6.380628338804894,3940.197914176051
6.400684281744585,4139.0725068930915
6.420740224684277,3883.3454623520984
6.440796167623969,3258.4044469557953
6.460852110563659,2442.693632427672
6.4809080535033505,1636.1774981527083
6.500963996443042,987.0013664856856
6.521019939382733,526.8313991605453
6.541075882322425,261.41427133551167
6.561131825262116,123.98947056900367
6.581187768201808,54.03856260854611
6.6012437111415,28.594662942475995
6.62129965408119,19.1225569920231
6.6413555970208815,15.77363250326465
6.6614115399605724,14.386504016796655
6.681467482900264,13.316433470092772
6.701523425839956,12.78139819674083
6.721579368779647,12.979559409093401
6.741635311719339,13.415514076269057
6.761691254659029,12.50397249944723
6.781747197598721,14.465768501737683
6.8018031405384125,16.506828988969165
6.821859083478103,19.102740870787844
6.841915026417795,22.19405578348795
6.861970969357486,28.85227251853434
6.882026912297178,40.40507119868923
6.902082855236869,59.7257894030649
6.92213879817656,100.26957345040093
6.942194741116252,161.5212041885806
6.962250684055943,248.61305701753557
6.982306626995634,370.89834116030715
7.002362569935326,496.29475633701406
7.022418512875017,611.4660529563283
7.042474455814709,683.5571020101936
7.062530398754399,690.3540315938868
7.082586341694091,635.0868694687548
7.102642284633783,517.6169027861507
7.122698227573474,392.6168100341489
7.142754170513165,261.8105937602168
7.162810113452856,161.14469788511073
7.182866056392548,91.86753804665192
7.202921999332239,48.37115193526258
7.22297794227193,24.017138937131605
7.243033885211622,12.444524135741458
7.263089828151313,6.876194068634214
7.283145771091005,5.370168854754674
7.303201714030696,4.71623685399119
7.323257656970387,5.33053661228416
7.343313599910078,5.885388006871358
7.363369542849769,8.104793585220154
7.383425485789461,11.354637467802318
7.403481428729153,13.316433470092772
7.423537371668844,18.547889476200645
7.443593314608536,21.540123782724468
7.4636492575482265,22.828171663016178
7.483705200487917,22.392216995840524
7.503761143427609,22.154423541017437
7.5238170863673,17.358922202085218
7.543873029306992,13.93073322838574
7.563928972246683,10.72052158827409
7.583984915186375,7.193252008398328
7.604040858126067,5.548513945871988
7.6240968010657575,4.795501338932218
7.644152744005448,3.96322424705142
7.664208686945139,3.96322424705142
7.684264629884831,4.1613854594039905
7.704320572824523,3.6065340648167923
7.724376515764214,3.6065340648167923
7.744432458703906,4.0623048532277055
7.764488401643597,4.0424887319924485
7.784544344583288,3.784879155934106
7.804600287522979,3.7254307922283347
7.82465623046267,3.586717943581535
7.844712173402362,3.4678212161699924
7.864768116342053,4.1613854594039905
7.884824059281745,4.30009830805079
7.904880002221437,5.112559278696332
7.924935945161127,6.202445946635472
7.944991888100819,7.351780978280384
7.9650478310405095,8.501116009925296
7.985103773980201,10.839418315685634
8.005159716919893,12.30581128709466
8.025215659859583,14.109078319503055
8.045271602799275,13.59385916738637
8.065327545738967,12.880478802917114
8.085383488678659,12.206730680918373
8.10543943161835,9.650451041570207
8.12549537455804,7.867000130397068
8.145551317497732,6.737481219987414
8.165607260437422,5.7268590369893015
8.185663203377114,5.211639884872617
8.205719146316806,5.370168854754674
8.225775089256498,5.6277784308130165
8.24583103219619,5.964652491812387
8.26588697513588,6.658216735046386
8.285942918075573,6.6978489775169
8.305998861015263,5.905204128106615
8.326054803954953,5.6475945520482735
8.346110746894645,4.874765823873246
8.366166689834337,4.854949702637989
8.386222632774029,4.775685217696961
8.406278575713719,4.0424887319924485
8.426334518653412,4.240649944345019
8.446390461593102,4.0424887319924485
8.466446404532793,4.537891762873876
8.486502347472486,4.597340126579647
8.506558290412176,5.6277784308130165
8.526614233351868,7.331964857045127
8.546670176291558,9.194680253159294
8.566726119231252,12.959743287858142
8.586782062170942,15.397126199794766
8.606838005110632,17.259841595908934
8.626893948050325,18.7064184460827
8.646949890990015,17.735428505555102
8.667005833929707,15.99160983685248
8.687061776869399,13.712755894797914
8.70711771980909,11.632063165095918
8.72717366274878,8.243506433866953
8.74722960568847,6.261894310341243
8.767285548628164,4.973846430049532
8.787341491567854,3.82451139840462
8.807397434507546,3.7452469134635917
8.827453377447238,4.1019370956982195
8.84750932038693,3.96322424705142
8.86756526332662,4.181201580639248
8.887621206266312,4.1217532169334765
8.907677149206004,4.894581945108504
8.927733092145694,4.30009830805079
8.947789035085385,4.280282186815533
8.967844978025077,3.804695277169363
8.98790092096477,3.547085701111021
9.00795686390446,2.8931537003475367
9.028012806844151,3.2498438825821645
9.048068749783843,2.6751763667597084
9.068124692723533,2.358118426995595
9.088180635663226,2.6751763667597084
9.108236578602916,2.8535214578770223
9.128292521542608,3.012050427759079
9.148348464482298,3.170579397641136
9.16840440742199,3.4876373374052494
9.188460350361682,4.1019370956982195
9.208516293301372,4.240649944345019
9.228572236241066,5.05311091499056
9.248628179180756,5.409801097225188
9.268684122120447,5.271088248578389
9.28874006506014,4.71623685399119
9.30879600799983,4.280282186815533
9.328851950939521,3.7254307922283347
9.348907893879211,3.2894761250526785
9.368963836818905,3.0913149127001076
9.389019779758595,2.794073094171251
9.409075722698287,2.5166473968776515
9.429131665637978,2.774256972935994
9.44918760857767,3.230027761346907
9.46924355151736,3.527269579875764
9.489299494457052,3.96322424705142
9.509355437396744,4.0623048532277055
9.529411380336434,5.350352733519417
9.549467323276126,5.290904369813646
9.569523266215818,5.885388006871358
9.58957920915551,5.072927036225818
9.6096351520952,5.231456006107874
9.629691095034891,5.6277784308130165
9.649747037974583,5.350352733519417
9.669802980914273,4.636972369050161
9.689858923853967,4.656788490285418
9.709914866793657,4.260466065580276
9.729970809733349,3.566901822346278
9.750026752673039,3.7056146709930777
9.77008269561273,2.6355441242891944
9.790138638552422,2.8337053366417653
9.810194581492112,2.6355441242891944
9.830250524431806,2.397750669466109
9.850306467371496,2.8535214578770223
9.870362410311188,2.4968312756423945
9.89041835325088,2.576095760583423
9.91047429619057,2.576095760583423
9.930530239130261,2.239221699584052
9.950586182069951,2.417566790701366
9.970642125009645,2.615728003053937
9.990698067949335,2.714808609230223
10.010754010889027,2.397750669466109
10.030809953828719,3.0913149127001076
10.050865896768409,3.507453458640507
10.0709218397081,3.1507632764058786
10.090977782647792,3.408372852464221
10.111033725587484,3.6263501860520493
10.131089668527174,3.190395518876393
10.151145611466866,3.1309471551706216
10.171201554406558,2.8337053366417653
10.191257497346248,2.576095760583423
10.21131344028594,2.4968312756423945
10.231369383225632,2.358118426995595
10.251425326165323,2.8733375791122793
10.271481269105013,2.714808609230223
10.291537212044707,2.377934548230852
10.311593154984397,2.377934548230852
10.331649097924087,2.219405578348795
10.35170504086378,2.397750669466109
10.37176098380347,2.1401410934077667
10.391816926743163,1.9617960022904528
10.411872869682853,2.179773335878281
10.431928812622546,2.6751763667597084
10.451984755562236,2.615728003053937
10.472040698501926,3.0714987914648506
10.49209664144162,2.8138892154065083
10.51215258438131,3.0913149127001076
10.532208527321002,3.2894761250526785
10.552264470260694,2.59591188181868
10.572320413200385,3.507453458640507
10.592376356140075,2.8931537003475367
10.612432299079767,2.8535214578770223
10.632488242019459,2.556279639348166
10.65254418495915,2.437382911936623
10.672600127898841,2.358118426995595
10.692656070838533,2.2986700632898236
10.712712013778225,2.2986700632898236
10.732767956717915,2.1005088509372527
10.752823899657608,2.397750669466109
10.772879842597298,1.8627153961141674
10.792935785536988,2.536463518112909
10.81299172847668,2.397750669466109
10.833047671416372,2.536463518112909
10.853103614356064,2.2986700632898236
10.873159557295754,2.8535214578770223
10.893215500235447,3.21021164011165
10.913271443175137,2.8931537003475367
10.933327386114827,3.1111310339353646
10.953383329054521,2.73462473046548
10.973439271994211,2.9526020640533077
10.993495214933903,2.179773335878281
