Energy (keV),Intensity (cps),slope,offset,liveTime
-0.016726846347951956,0.0,20.061133238820258,-16.726846347951955,54.47723388671875
0.0033342868908683024,0.0
0.02339542012968856,0.0
0.043456553368508816,0.0
0.06351768660732908,0.0
0.08357881984614934,0.0
0.1036399530849696,0.0
0.12370108632378987,0.0
0.14376221956261012,0.0
0.16382335280143037,0.0
0.18388448604025062,0.0
0.20394561927907087,0.0
0.22400675251789112,0.0
0.2440678857567114,0.0
0.2641290189955317,0.0
0.2841901522343519,0.0
0.30425128547317215,0.0
0.32431241871199246,0.0
0.34437355195081265,0.0
0.36443468518963296,0.0
0.3844958184284532,0.0
0.40455695166727346,0.0
0.4246180849060937,0.0
0.444679218144914,0.0
0.4647403513837342,0.03671258353826935
0.48480148462255446,0.09178145884567337
0.5048626178613748,0.1284940423839427
0.524923751100195,0.49561987776663624
0.5449848843390153,0.8627457131493297
0.5650460175778355,1.41343446622337
0.5851071508166557,2.0559046781430834
0.605168284055476,2.7350874736010664
0.6252294172942963,4.662498109360207
0.6452905505331166,5.34168090481819
0.6653516837719368,7.085528622885985
0.6854128170107571,9.269927343413011
0.7054739502495773,9.949110138870994
0.7255350834883975,12.262002901781964
0.7455962167272178,13.143104906700428
0.7656573499660381,14.060919495157162
0.7857184832048584,15.841479796763224
0.8057796164436786,15.804767213224956
0.8258407496824988,16.282030799222458
0.8459018829213191,16.263674507453324
0.8659630161601393,16.263674507453324
0.8860241493989596,16.630800342836014
0.9060852826377799,16.153536756838513
0.9261464158766002,17.640396390138424
0.9462075491154203,16.502306300452073
0.9662686823542406,16.796006968758228
0.9863298155930609,15.566135420226205
1.0063909488318812,15.327503627227454
1.0264520820707015,16.594087759297746
1.0465132153095218,16.4105248416064
1.0665743485483419,17.144776512371788
1.0866354817871622,16.48395000868294
1.1066966150259825,15.290791043689184
1.1267577482648028,16.116824173300245
1.1468188815036229,16.630800342836014
1.1668800147424432,16.263674507453324
1.1869411479812635,14.299551288155913
1.2070022812200836,16.465593716913805
1.2270634144589039,15.731342046148416
1.2471245476977242,15.914904963839763
1.2671856809365445,15.621204295533609
1.2872468141753648,15.19900958484351
1.307307947414185,14.758458582384279
1.3273690806530054,15.731342046148416
1.3474302138918255,14.574895664692932
1.3674913471306458,15.290791043689184
1.387552480369466,14.226126121079373
1.4076136136082862,15.180653293074377
1.4276747468471065,14.923665208306492
1.4477358800859268,16.043399006223705
1.467797013324747,17.163132804140922
1.4878581465635672,16.630800342836014
1.5079192798023875,16.33709967452986
1.5279804130412078,15.290791043689184
1.548041546280028,14.795171165922548
1.5681026795188484,14.574895664692932
1.5881638127576687,14.428045330539854
1.608224945996489,14.299551288155913
1.6282860792353093,14.005850619849758
1.6483472124741294,13.987494328080622
1.6684083457129495,14.464757914078124
1.6884694789517698,16.55737517575948
1.70853061219059,20.485621614354297
1.7285917454294104,21.4401487863493
1.7486528786682307,20.669184532045644
1.768714011907051,17.732177848984097
1.788775145145871,17.218201679448324
1.8088362783846914,14.721745998846009
1.8288974116235117,14.923665208306492
1.848958544862332,14.629964540000335
1.8690196781011523,15.052159250690433
1.8890808113399726,15.400928794303992
1.9091419445787927,15.180653293074377
1.9292030778176128,15.657916879071879
1.949264211056433,15.345859918996588
1.9693253442952534,15.804767213224956
1.9893864775340737,15.768054629686686
2.009447610772894,14.042563203388026
2.0295087440117143,14.33626387169418
2.049569877250535,13.289955240853505
2.069631010489355,13.657081076236198
2.0896921437281755,13.418449283237447
2.1097532769669955,13.124748614931292
2.129814410205816,13.436805575006582
2.149875543444636,13.234886365546101
2.1699366766834562,13.253242657315235
2.1899978099222768,13.400092991468313
2.210058943161097,13.54694332562139
2.2301200763999174,12.92282940547081
2.2501812096387375,13.51023074208312
2.270242342877558,12.977898280778215
2.290303476116378,13.27159894908437
2.3103646093551977,13.748862535081871
2.3304257425940182,12.500634694780715
2.3504868758328383,13.03296715608562
2.370548009071659,12.629128737164656
2.390609142310479,12.335428068858501
2.4106702755492995,12.739266487779464
2.4307314087881196,12.647485028933792
2.4507925420269396,12.17022144293629
2.47085367526576,12.463922111242445
2.4909148085045802,11.637888981631384
2.5109759417434008,11.454326063940037
2.531037074982221,11.509394939247441
2.5510982082210414,12.13350885939802
2.5711593414598615,11.839808191091866
2.5912204746986816,10.738430684943784
2.611281607937502,10.921993602635132
2.631342741176322,10.885281019096862
2.6514038744151427,11.54610752278571
2.6714650076539628,11.013775061480805
2.6915261408927833,10.903637310865998
2.7115872741316034,11.160625395633883
2.7316484073704235,10.866924727327728
2.751709540609244,11.3809008968635
2.771770673848064,11.509394939247441
2.7918318070868846,12.115152567628886
2.8118929403257042,11.417613480401767
2.8319540735645248,11.417613480401767
2.852015206803345,9.85732868002532
2.872076340042165,10.958706186173401
2.8921374732809855,11.399257188632633
2.9121986065198056,11.34418831332523
2.932259739758626,12.463922111242445
2.952320872997446,13.014610864316484
2.9723820062362667,13.069679739623888
2.9924431394750868,12.427209527704175
3.0125042727139073,11.509394939247441
3.0325654059527274,10.132673056562341
3.0526265391915475,9.269927343413011
3.072687672430368,10.059247889485802
3.092748805669188,9.196502176336471
3.1128099389080086,9.82061609648705
3.1328710721468287,10.261167098946283
3.1529322053856492,9.416777677566088
3.1729933386244693,9.490202844642628
3.1930544718632894,9.967466430640128
3.21311560510211,10.371304849561092
3.23317673834093,11.03213135324994
3.2532378715797505,11.839808191091866
3.2732990048185706,13.638724784467064
3.293360138057391,14.501470497616394
3.3134212712962112,14.758458582384279
3.333482404535031,14.09763207869543
3.3535435377738514,12.078439984090616
3.3736046710126715,10.995418769711671
3.393665804251492,10.114316764793205
3.413726937490312,8.921157799799452
3.4337880707291326,8.774307465646375
3.4538492039679527,8.939514091568586
3.473910337206773,8.186906129034066
3.4939714704455933,8.700882298569836
3.5140326036844134,9.03129555041426
3.534093736923234,10.903637310865998
3.554154870162054,11.986658525244943
3.5742160034008745,18.117659976135926
3.5942771366396946,33.83064573051521
3.6143382698785147,56.88614819254836
3.6343994031173352,97.19656491756811
3.6544605363561553,146.61170236007865
3.674521669594976,179.34097058444578
3.694582802833796,194.26463579275227
3.7146439360726164,175.4310804376201
3.7347050693114365,130.14610864316484
3.7547662025502566,88.11020049184644
3.774827335789077,50.33295203096728
3.7948884690278972,25.900727686249027
3.8149496022667178,13.82228770215841
3.8350107355055374,10.297879682484552
3.855071868744358,8.51731938087849
3.875133001983178,8.719238590338971
3.895194135221998,10.077604181254937
3.9152552684608186,11.325832021556094
3.9353164016996387,15.731342046148416
3.9553775349384592,22.045906414730744
3.9754386681772793,28.61745886808096
3.9954998014161,33.05968147621155
4.01556093465492,35.464355697968195
4.0356220678937405,33.316669560979435
4.0556832011325605,26.690048232321818
4.075744334371381,21.109735534504875
4.095805467610201,14.813527457691682
4.115866600849021,10.059247889485802
4.135927734087841,8.223618712572334
4.155988867326662,6.938678288732907
4.176050000565481,6.498127286273675
4.196111133804302,5.65373786489348
4.216172267043122,5.910725949661366
4.236233400281942,5.9841511167379045
4.256294533520762,5.672094156662615
4.276355666759583,5.708806740200884
4.296416799998403,5.176474278895978
4.316477933237223,5.800588199046557
4.3365390664760435,5.231543154203383
4.3566001997148645,6.589908745119349
4.376661332953684,9.361708802258685
4.396722466192505,13.326667824391775
4.416783599431325,21.586999120502377
4.436844732670146,36.67587095473108
4.456905865908965,53.50859050702758
4.476966999147786,74.25120020614976
4.497028132386606,85.30168785116884
4.517089265625426,90.03761112760559
4.537150398864246,79.61123740273709
4.557211532103067,63.365919187052896
4.577272665341887,44.45893866484418
4.597333798580707,30.489800628532695
4.617394931819527,21.03631036742834
4.637456065058347,18.466429519749482
4.6575171982971675,15.988330130916301
4.677578331535988,13.693793659774467
4.6976394647748085,11.784739315784462
4.717700598013629,9.416777677566088
4.737761731252449,7.654573667729159
4.757822864491269,7.140597498193388
4.77788399773009,5.874013366123096
4.797945130968909,5.61702528135521
4.81800626420773,6.9019657051946375
4.83806739744655,8.2052624208032
4.858128530685371,10.940349894404266
4.87818966392419,13.969138036311488
4.898250797163011,17.768890432522365
4.918311930401831,19.86150769420372
4.938373063640651,20.191920946048143
4.958434196879471,20.265346113124682
4.978495330118292,17.181489095910056
4.9985564633571125,12.977898280778215
5.0186175965959325,9.178145884567337
5.038678729834753,6.938678288732907
5.058739863073574,4.937842485897227
5.078800996312393,4.589072942283669
5.098862129551214,3.8915338550565512
5.118923262790034,3.7813961044417432
5.138984396028854,3.836464979749147
5.159045529267674,3.854821271518282
5.179106662506494,4.056740480978763
5.199167795745315,4.20359081513184
5.219228928984134,4.956198777666362
5.239290062222955,4.607429234052804
5.259351195461775,4.699210692898477
5.279412328700596,5.268255737741652
5.2994734619394155,5.3233246130490555
5.3195345951782365,5.672094156662615
5.3395957284170565,7.06717233111685
5.359656861655877,8.645813423262432
5.379717994894697,8.186906129034066
5.399779128133518,9.637053178795705
5.419840261372338,9.526915428180896
5.439901394611158,8.040055794880988
5.459962527849978,7.360872999423004
5.480023661088799,6.6816902039650214
5.500084794327618,5.3049683212799215
5.520145927566439,4.368797441054053
5.540207060805259,3.8915338550565512
5.56026819404408,3.285776226675107
5.580329327282899,3.616189478519531
5.60039046052172,3.175638476060299
5.62045159376054,3.1022133089837602
5.64051272699936,3.0838570172146254
5.6605738602381805,2.7718000571393357
5.680634993477001,3.3408451019825107
5.700696126715822,3.4509828525973187
5.720757259954641,3.395913977289915
5.740818393193462,3.3041325184442414
5.760879526432282,4.3871537328231875
5.780940659671102,5.910725949661366
5.801001792909922,8.902801508030317
5.821062926148743,13.234886365546101
5.841124059387563,18.13601626790506
5.861185192626383,22.945364711418343
5.881246325865203,27.332518444241533
5.901307459104024,27.699644279624223
5.921368592342843,25.71716476855768
5.941429725581664,21.47686136988757
5.9614908588204845,17.19984538767919
5.981551992059305,13.179817490238698
6.001613125298125,9.178145884567337
6.021674258536946,6.700046495734156
6.041735391775766,5.800588199046557
6.061796525014587,4.8460610270515545
6.081857658253406,5.580312697816941
6.101918791492227,5.029623944742901
6.121979924731047,5.9290822414305
6.142041057969867,6.663333912195887
6.162102191208687,8.498963089109354
6.182163324447507,10.958706186173401
6.202224457686328,19.145612315207465
6.222285590925147,33.83064573051521
6.242346724163968,76.16025455013977
6.262407857402788,156.4873873318731
6.2824689906416085,318.53673106979403
6.3025301238804285,587.3829803205405
6.3225912571192495,970.0015259563836
6.34265239035807,1454.313927993233
6.36271352359689,1912.7439586356022
6.38277465683571,2259.072115443866
6.402835790074531,2391.898242685325
6.42289692331335,2243.4141985647943
6.442958056552171,1888.1281713731928
6.463019189790991,1405.8900303062555
6.483080323029812,944.8717625244383
6.503141456268631,564.3825467338147
6.523202589507452,303.0256645248752
6.543263722746272,146.4832083176947
6.563324855985092,68.30376167295013
6.583385989223912,30.875282755684523
6.603447122462733,15.419285086073128
6.623508255701553,10.426373724868496
6.6435693889403735,8.076768378419256
6.663630522179194,7.92991804426618
6.683691655418014,7.195666373500793
6.703752788656834,6.6449776204267526
6.723813921895654,6.828540538118099
6.743875055134475,6.47977099450454
6.763936188373295,7.471010750037813
6.783997321612115,7.691286251267429
6.804058454850935,8.590744547955028
6.824119588089756,10.279523390715418
6.844180721328575,11.674601565169654
6.864241854567396,16.704225509912554
6.884302987806216,22.982077294956614
6.904364121045037,35.0972298625855
6.9244252542838565,57.80396278100509
6.944486387522677,91.79981513744251
6.9645475207614975,144.64757914078123
6.984608654000318,212.84120306311655
7.004669787239138,287.53295427172554
7.024730920477959,351.8534006307735
7.044792053716779,394.7153419117029
7.064853186955599,402.6269036642
7.084914320194419,372.11874674389816
7.10497545343324,305.9259586243985
7.125036586672059,224.95635563074543
7.14509771991088,154.92710253149667
7.1651588531497,92.55242309997703
7.18521998638852,51.801455372498054
7.20528111962734,27.736356863162495
7.22534225286616,13.748862535081871
7.245403386104981,6.0025074085070385
7.2654645193438006,3.854821271518282
7.2855256525826215,2.4413868052949117
7.305586785821442,1.8356291769134676
7.325647919060263,2.0742609699122183
7.345709052299082,2.367961638218373
7.365770185537903,2.955362974830683
7.385831318776723,3.285776226675107
7.405892452015543,4.478935191668861
7.425953585254363,5.5436001142786715
7.446014718493184,6.057576283814443
7.466075851732004,6.75511537104156
7.486136984970824,6.608265036888483
7.506198118209644,6.259495493274924
7.526259251448465,5.415106071894729
7.546320384687284,4.809348443513285
7.566381517926105,3.4693391443664536
7.586442651164925,2.4230305135257773
7.606503784403746,2.2761801793727
7.626564917642566,2.0559046781430834
7.646626050881387,1.743847718067794
7.666687184120207,1.9457669275282756
7.686748317359026,1.523572216838178
7.706809450597847,1.6153536756838514
7.726870583836667,1.4317907579925047
7.746931717075488,1.8906980522208716
7.766992850314307,1.41343446622337
7.787053983553128,1.743847718067794
7.807115116791948,1.9090543439900063
7.827176250030768,2.0008358028356796
7.847237383269588,2.037548386373949
7.867298516508409,1.9457669275282756
7.887359649747229,2.3128927629109692
7.9074207829860494,3.2307073513677027
7.9274819162248695,3.744683520903474
7.9475430494636905,5.9290822414305
7.96760418270251,6.553196161581079
7.987665315941331,8.645813423262432
8.00772644918015,9.710478345872243
8.027787582418972,12.09679627585975
8.047848715657791,12.92282940547081
8.067909848896612,11.3809008968635
8.087970982135431,9.416777677566088
8.108032115374252,8.27868758787974
8.128093248613073,6.057576283814443
8.148154381851892,4.5523603587454
8.168215515090713,3.4693391443664536
8.188276648329532,2.7350874736010664
8.208337781568353,2.2211113040652957
8.228398914807174,2.147686136988757
8.248460048045994,2.0008358028356796
8.268521181284815,2.4413868052949117
8.288582314523634,2.0742609699122183
8.308643447762455,1.9457669275282756
8.328704581001276,2.147686136988757
8.348765714240095,1.7989165933751983
8.368826847478914,1.6153536756838514
8.388887980717737,1.578641092145582
8.408949113956556,1.41343446622337
8.429010247195375,1.468503341530774
8.449071380434196,1.2298715485320233
8.469132513673017,1.7071351345295247
8.489193646911838,2.2394675958344306
8.509254780150657,2.6616623065245277
8.529315913389476,4.093453064517033
8.5493770466283,5.818944490815692
8.569438179867118,6.938678288732907
8.589499313105938,8.223618712572334
8.609560446344759,9.526915428180896
8.62962157958358,9.61869688702657
8.649682712822399,9.269927343413011
8.66974384606122,8.811020049184645
8.689804979300039,7.177310081731658
8.70986611253886,6.186070326198386
8.72992724577768,4.901129902358958
8.7499883790165,3.8731775632874164
8.770049512255321,2.698374890062797
8.79011064549414,2.5331682641405853
8.810171778732961,2.0008358028356796
8.830232911971782,2.3312490546801037
8.850294045210601,3.175638476060299
8.87035517844942,2.7718000571393357
8.890416311688243,2.9002940995232787
8.910477444927063,3.065500725445491
8.930538578165882,3.157282184291164
8.950599711404703,2.845225224215875
8.970660844643524,2.3128927629109692
8.990721977882343,2.0008358028356796
9.010783111121164,2.1109735534504876
9.030844244359983,1.8356291769134676
9.050905377598806,1.4317907579925047
9.070966510837625,1.468503341530774
9.091027644076444,1.5602848003764473
9.111088777315265,1.3216530073776966
9.131149910554086,2.0008358028356796
9.151211043792905,1.9090543439900063
9.171272177031726,2.0742609699122183
9.191333310270545,3.1022133089837602
9.211394443509366,3.1205696007528947
9.231455576748187,3.671258353826935
9.251516709987007,3.487695436135588
9.271577843225826,3.2490636431368376
9.291638976464647,3.0104318501380867
9.311700109703468,2.5698808476788546
9.331761242942289,2.4597430970640466
9.351822376181108,1.817272885144333
9.371883509419927,2.1109735534504876
9.39194464265875,1.13809008968635
9.412005775897569,1.4317907579925047
9.432066909136388,1.5969973839147167
9.45212804237521,1.523572216838178
9.47218917561403,1.6704225509912554
9.49225030885285,1.8906980522208716
9.51231144209167,2.0926172616813528
9.53237257533049,1.872341760451737
9.552433708569312,2.2945364711418343
9.572494841808131,2.3496053464492386
9.59255597504695,2.386317929987508
9.612617108285772,2.2394675958344306
9.632678241524593,2.0926172616813528
9.652739374763412,1.6520662592221207
9.672800508002233,1.523572216838178
9.692861641241052,1.1564463814554846
9.712922774479873,1.523572216838178
9.732983907718694,1.2665841320702926
9.753045040957513,1.13809008968635
9.773106174196332,1.1013775061480806
9.793167307435153,1.2115152567628886
9.813228440673974,1.1197337979172153
9.833289573912795,1.358365590915966
9.853350707151614,1.083021214378946
9.873411840390434,1.2665841320702926
9.893472973629256,1.2849404238394273
9.913534106868076,1.2849404238394273
9.933595240106895,1.083021214378946
9.953656373345716,1.2298715485320233
9.973717506584537,0.9361708802258685
9.993778639823356,1.0463086308406764
10.013839773062177,1.523572216838178
10.033900906300996,1.1748026732246193
10.053962039539817,1.3216530073776966
10.074023172778638,1.009596047302407
10.094084306017457,1.1013775061480806
10.114145439256278,1.5052159250690433
10.1342065724951,1.2115152567628886
10.154267705733918,1.3216530073776966
10.17432883897274,1.523572216838178
10.194389972211559,1.3767218826851007
10.21445110545038,1.2665841320702926
10.2345122386892,1.0646649226098113
10.25457337192802,1.468503341530774
10.274634505166839,1.358365590915966
10.29469563840566,1.817272885144333
10.31475677164448,1.358365590915966
10.3348179048833,1.248227840301158
10.354879038122121,0.9912397555332725
10.37494017136094,1.2665841320702926
10.395001304599763,1.083021214378946
10.415062437838582,1.193158964993754
10.435123571077401,1.0463086308406764
10.455184704316222,1.3400092991468313
10.475245837555043,1.2849404238394273
10.495306970793862,1.193158964993754
10.515368104032683,1.2849404238394273
10.535429237271503,1.009596047302407
10.555490370510324,1.4868596332999087
10.575551503749145,1.2298715485320233
10.595612636987964,1.2298715485320233
10.615673770226783,1.2665841320702926
10.635734903465606,1.13809008968635
10.655796036704425,1.009596047302407
10.675857169943246,0.9178145884567338
10.695918303182065,1.3216530073776966
10.715979436420886,1.13809008968635
10.736040569659707,1.3400092991468313
10.756101702898526,1.1748026732246193
10.776162836137345,1.0463086308406764
10.796223969376166,1.1564463814554846
10.816285102614987,1.248227840301158
10.836346235853807,1.5419285086073127
10.856407369092627,1.248227840301158
10.876468502331447,1.4868596332999087
10.896529635570268,1.68877884276039
10.916590768809089,1.523572216838178
10.936651902047908,1.6520662592221207
10.956713035286729,1.2849404238394273
10.97677416852555,1.1748026732246193
