Energy (keV),Intensity (cps),slope,offset,liveTime
-0.016726846347951956,0.0,20.061133238820258,-16.726846347951955,58.816158294677734
0.0033342868908683024,0.0
0.02339542012968856,0.0
0.043456553368508816,0.0
0.06351768660732908,0.0
0.08357881984614934,0.0
0.1036399530849696,0.0
0.12370108632378987,0.0
0.14376221956261012,0.0
0.16382335280143037,0.0
0.18388448604025062,0.0
0.20394561927907087,0.0
0.22400675251789112,0.0
0.2440678857567114,0.0
0.2641290189955317,0.0
0.2841901522343519,0.0
0.30425128547317215,0.0
0.32431241871199246,0.0
0.34437355195081265,0.0
0.36443468518963296,0.0
0.3844958184284532,0.0
0.40455695166727346,0.0
0.4246180849060937,0.0
0.444679218144914,0.0
0.4647403513837342,0.0
0.48480148462255446,0.01700213051981142
0.5048626178613748,0.03400426103962284
0.524923751100195,0.05100639155943427
0.5449848843390153,0.13601704415849136
0.5650460175778355,0.20402556623773707
0.5851071508166557,0.49306178507453124
0.605168284055476,0.5780724376735883
0.6252294172942963,1.088136353267931
0.6452905505331166,1.411176833144348
0.6653516837719368,1.853232226659445
0.6854128170107571,2.0232535318575593
0.7054739502495773,2.2782854896547304
0.7255350834883975,2.550319577971713
0.7455962167272178,2.5673217084915247
0.7656573499660381,2.8563579273283186
0.7857184832048584,3.6894623227990784
0.8057796164436786,3.1964005377245472
0.8258407496824988,3.060383493566056
0.8459018829213191,3.4004261039622845
0.8659630161601393,3.7404687143585127
0.8860241493989596,3.6724601922792672
0.9060852826377799,3.46843462604153
0.9261464158766002,3.383423973442473
0.9462075491154203,3.6554580617594556
0.9662686823542406,3.5874495396802097
0.9863298155930609,3.23040479876417
1.0063909488318812,3.5874495396802097
1.0264520820707015,3.298413320843416
1.0465132153095218,3.7404687143585127
1.0665743485483419,3.7574708448783243
1.0866354817871622,3.6554580617594556
1.1066966150259825,3.3324175818830386
1.1267577482648028,2.941368579927376
1.1468188815036229,3.3324175818830386
1.1668800147424432,3.4854367565613416
1.1869411479812635,2.8053515357688847
1.2070022812200836,3.0093771020066216
1.2270634144589039,4.029504933195307
1.2471245476977242,3.2814111903236043
1.2671856809365445,3.128392015645302
1.2872468141753648,3.0433813630462443
1.307307947414185,3.128392015645302
1.3273690806530054,3.0773856240858675
1.3474302138918255,2.99237497148681
1.3674913471306458,3.0093771020066216
1.387552480369466,3.383423973442473
1.4076136136082862,3.11138988512549
1.4276747468471065,3.383423973442473
1.4477358800859268,2.87336005784813
1.467797013324747,3.383423973442473
1.4878581465635672,2.9243664494075645
1.5079192798023875,3.553445278640587
1.5279804130412078,3.2474069292839816
1.548041546280028,3.0093771020066216
1.5681026795188484,3.3664218429226613
1.5881638127576687,3.0773856240858675
1.608224945996489,2.941368579927376
1.6282860792353093,2.99237497148681
1.6483472124741294,3.0773856240858675
1.6684083457129495,3.145394146165113
1.6884694789517698,3.536443148120776
1.70853061219059,3.213402668244359
1.7285917454294104,3.264409059803793
1.7486528786682307,3.1623962766849245
1.768714011907051,3.3664218429226613
1.788775145145871,2.941368579927376
1.8088362783846914,2.8393557968085075
1.8288974116235117,3.0943877546056786
1.848958544862332,3.4344303650019072
1.8690196781011523,3.3324175818830386
1.8890808113399726,3.1793984072047357
1.9091419445787927,3.4344303650019072
1.9292030778176128,3.145394146165113
1.949264211056433,3.060383493566056
1.9693253442952534,3.6894623227990784
1.9893864775340737,3.0943877546056786
2.009447610772894,3.11138988512549
2.0295087440117143,3.128392015645302
2.049569877250535,3.0433813630462443
2.069631010489355,3.315415451363227
2.0896921437281755,2.63533023057077
2.1097532769669955,3.2814111903236043
2.129814410205816,2.6693344916103934
2.149875543444636,3.5024388870811527
2.1699366766834562,3.3324175818830386
2.1899978099222768,3.145394146165113
2.210058943161097,3.264409059803793
2.2301200763999174,3.1793984072047357
2.2501812096387375,3.2474069292839816
2.270242342877558,2.941368579927376
2.290303476116378,3.23040479876417
2.3103646093551977,3.0433813630462443
2.3304257425940182,3.145394146165113
2.3504868758328383,3.4344303650019072
2.370548009071659,2.8053515357688847
2.390609142310479,3.11138988512549
2.4106702755492995,2.907364318887753
2.4307314087881196,2.890362188367942
2.4507925420269396,3.128392015645302
2.47085367526576,3.0773856240858675
2.4909148085045802,3.1964005377245472
2.5109759417434008,2.907364318887753
2.531037074982221,2.5673217084915247
2.5510982082210414,3.7404687143585127
2.5711593414598615,3.264409059803793
2.5912204746986816,3.1793984072047357
2.611281607937502,2.822353666288696
2.631342741176322,3.2474069292839816
2.6514038744151427,3.0773856240858675
2.6714650076539628,3.23040479876417
2.6915261408927833,3.0943877546056786
2.7115872741316034,3.145394146165113
2.7316484073704235,3.1964005377245472
2.751709540609244,3.70646445331889
2.771770673848064,2.941368579927376
2.7918318070868846,3.0943877546056786
2.8118929403257042,3.315415451363227
2.8319540735645248,3.060383493566056
2.852015206803345,2.822353666288696
2.872076340042165,2.99237497148681
2.8921374732809855,3.4174282344820957
2.9121986065198056,2.737343013689639
2.932259739758626,2.7543451442094504
2.952320872997446,3.0433813630462443
2.9723820062362667,2.907364318887753
2.9924431394750868,3.0433813630462443
3.0125042727139073,2.6863366221302045
3.0325654059527274,3.0433813630462443
3.0526265391915475,2.6013259695311475
3.072687672430368,2.975372840966999
3.092748805669188,2.703338752650016
3.1128099389080086,2.499313186412279
3.1328710721468287,2.975372840966999
3.1529322053856492,2.703338752650016
3.1729933386244693,2.941368579927376
3.1930544718632894,2.8393557968085075
3.21311560510211,2.7203408831698273
3.23317673834093,2.737343013689639
3.2532378715797505,3.1623962766849245
3.2732990048185706,2.8053515357688847
3.293360138057391,2.890362188367942
3.3134212712962112,2.9583707104471872
3.333482404535031,2.9583707104471872
3.3535435377738514,2.8563579273283186
3.3736046710126715,2.9243664494075645
3.393665804251492,2.788349405249073
3.413726937490312,3.0773856240858675
3.4337880707291326,2.7713472747292616
3.4538492039679527,2.618328100050959
3.473910337206773,2.9243664494075645
3.4939714704455933,2.7543451442094504
3.5140326036844134,3.026379232526433
3.534093736923234,2.8563579273283186
3.554154870162054,2.5673217084915247
3.5742160034008745,3.5874495396802097
3.5942771366396946,3.961496411116061
3.6143382698785147,5.542694549458523
3.6343994031173352,6.069760595572678
3.6544605363561553,7.123892687800986
3.674521669594976,9.181150480698168
3.694582802833796,8.994127044980242
3.7146439360726164,8.433056737826465
3.7347050693114365,7.480937428717025
3.7547662025502566,5.678711593617015
3.774827335789077,4.318541152032101
3.7948884690278972,3.0943877546056786
3.8149496022667178,2.99237497148681
3.8350107355055374,2.87336005784813
3.855071868744358,2.4483067948528445
3.875133001983178,2.533317447451902
3.895194135221998,2.7713472747292616
3.9152552684608186,3.3324175818830386
3.9353164016996387,2.7543451442094504
3.9553775349384592,3.11138988512549
3.9754386681772793,3.4854367565613416
3.9954998014161,3.383423973442473
4.01556093465492,3.6554580617594556
4.0356220678937405,3.23040479876417
4.0556832011325605,3.553445278640587
4.075744334371381,3.23040479876417
4.095805467610201,2.2782854896547304
4.115866600849021,2.4483067948528445
4.135927734087841,2.1592705760160507
4.155988867326662,2.261283359134919
4.176050000565481,2.4313046643330334
4.196111133804302,2.4823110558924677
4.216172267043122,2.6013259695311475
4.236233400281942,2.176272706535862
4.256294533520762,2.465308925372656
4.276355666759583,2.3292918812141647
4.296416799998403,2.3632961422537875
4.316477933237223,1.7172151825009536
4.3365390664760435,2.0232535318575593
4.3566001997148645,2.1932748370556734
4.376661332953684,2.227279098095296
4.396722466192505,2.584323839011336
4.416783599431325,2.584323839011336
4.436844732670146,3.2814111903236043
4.456905865908965,3.7404687143585127
4.476966999147786,4.760596545547198
4.497028132386606,5.542694549458523
4.517089265625426,5.6957137241368265
4.537150398864246,4.6585837624283295
4.557211532103067,4.199526238393421
4.577272665341887,3.7404687143585127
4.597333798580707,2.703338752650016
4.617394931819527,2.703338752650016
4.637456065058347,2.2782854896547304
4.6575171982971675,2.3462940117339763
4.677578331535988,2.0912620539368048
4.6976394647748085,2.1592705760160507
4.717700598013629,1.972247140298125
4.737761731252449,1.3601704415849136
4.757822864491269,1.7172151825009536
4.77788399773009,1.7172151825009536
4.797945130968909,1.7172151825009536
4.81800626420773,1.853232226659445
4.83806739744655,1.7852237045801993
4.858128530685371,2.0742599234169936
4.87818966392419,2.176272706535862
4.898250797163011,2.176272706535862
4.918311930401831,2.312289750694353
4.938373063640651,1.938242879258502
4.958434196879471,2.0912620539368048
4.978495330118292,2.0062514013377477
4.9985564633571125,1.6662087909415193
5.0186175965959325,1.9212407487386907
5.038678729834753,1.734217313020765
5.058739863073574,1.1731470058669882
5.078800996312393,1.734217313020765
5.098862129551214,1.326166180545291
5.118923262790034,1.445181094183971
5.138984396028854,1.4621832247037823
5.159045529267674,1.3431683110651023
5.179106662506494,1.411176833144348
5.199167795745315,1.3431683110651023
5.219228928984134,1.4281789636641593
5.239290062222955,1.564196007822651
5.259351195461775,1.3771725721047252
5.279412328700596,1.2241533974264223
5.2994734619394155,1.1391427448273652
5.3195345951782365,1.3941747026245366
5.3395957284170565,1.2581576584660452
5.359656861655877,1.326166180545291
5.379717994894697,1.2241533974264223
5.399779128133518,1.564196007822651
5.419840261372338,1.5131896162632166
5.439901394611158,1.4621832247037823
5.459962527849978,1.530191746783028
5.480023661088799,1.3431683110651023
5.500084794327618,1.0201278311886852
5.520145927566439,1.1901491363867995
5.540207060805259,0.9861235701490625
5.56026819404408,1.1731470058669882
5.580329327282899,0.8501065259905711
5.60039046052172,1.1901491363867995
5.62045159376054,0.9181150480698168
5.64051272699936,1.0711342227481195
5.6605738602381805,1.207151266906611
5.680634993477001,0.8671086565103825
5.700696126715822,1.0711342227481195
5.720757259954641,0.8671086565103825
5.740818393193462,0.9351171785896282
5.760879526432282,1.0371299617084968
5.780940659671102,0.9011129175500053
5.801001792909922,1.1901491363867995
5.821062926148743,1.1221406143075539
5.841124059387563,1.649206660421708
5.861185192626383,1.411176833144348
5.881246325865203,1.8872364876990677
5.901307459104024,2.2442812286151077
5.921368592342843,1.768221574060388
5.941429725581664,1.7852237045801993
5.9614908588204845,1.1391427448273652
5.981551992059305,1.0711342227481195
6.001613125298125,0.9861235701490625
6.021674258536946,0.9351171785896282
6.041735391775766,0.8161022649509483
6.061796525014587,0.7140894818320797
6.081857658253406,0.7480937428717025
6.101918791492227,0.9181150480698168
6.121979924731047,0.6970873513122683
6.142041057969867,0.8671086565103825
6.162102191208687,1.0201278311886852
6.182163324447507,1.0201278311886852
6.202224457686328,1.292161919505668
6.222285590925147,2.0402556623773704
6.242346724163968,3.4174282344820957
6.262407857402788,6.596826641686832
6.2824689906416085,14.46881307235952
6.3025301238804285,24.959127603083168
6.3225912571192495,40.465070637151186
6.34265239035807,61.59871887327678
6.36271352359689,79.91001344311368
6.38277465683571,94.92289469210716
6.402835790074531,100.66961480780343
6.42289692331335,92.03253250373922
6.442958056552171,78.14179186905329
6.463019189790991,57.688228853720155
6.483080323029812,38.203787278016264
6.503141456268631,24.84011268944449
6.523202589507452,12.904617064536868
6.543263722746272,6.902864991043437
6.563324855985092,2.8393557968085075
6.583385989223912,1.496187485743405
6.603447122462733,1.0711342227481195
6.623508255701553,0.6290788292330226
6.6435693889403735,0.6970873513122683
6.663630522179194,0.6630830902726454
6.683691655418014,0.7991001344311368
6.703752788656834,0.646080959752834
6.723813921895654,0.5440681766339655
6.743875055134475,0.6970873513122683
6.763936188373295,0.9521193091094396
6.783997321612115,0.5270660461141541
6.804058454850935,0.8331043954707597
6.824119588089756,0.7991001344311368
6.844180721328575,0.8331043954707597
6.864241854567396,1.0031257006688739
6.884302987806216,1.0711342227481195
6.904364121045037,1.972247140298125
6.9244252542838565,2.6013259695311475
6.944486387522677,4.250532629952855
6.9645475207614975,6.22277977025098
6.984608654000318,9.538195221614208
7.004669787239138,12.547572323620829
7.024730920477959,15.607955817186886
7.044792053716779,16.577077256816136
7.064853186955599,16.28804103797934
7.084914320194419,16.560075126296326
7.10497545343324,13.465687371690645
7.125036586672059,10.065261267728362
7.14509771991088,6.9538713826028715
7.1651588531497,3.8424814974773813
7.18521998638852,2.312289750694353
7.20528111962734,1.4621832247037823
7.22534225286616,1.0031257006688739
7.245403386104981,0.5780724376735883
7.2654645193438006,0.40805113247547414
7.2855256525826215,0.40805113247547414
7.305586785821442,0.30603834935660557
7.325647919060263,0.442055393515097
7.345709052299082,0.37404687143585125
7.365770185537903,0.40805113247547414
7.385831318776723,0.30603834935660557
7.405892452015543,0.49306178507453124
7.425953585254363,0.323040479876417
7.446014718493184,0.6290788292330226
7.466075851732004,0.5440681766339655
7.486136984970824,0.4760596545547198
7.506198118209644,0.4760596545547198
7.526259251448465,0.3570447409160398
7.546320384687284,0.4590575240349084
7.566381517926105,0.28903621883679415
7.586442651164925,0.2720340883169827
7.606503784403746,0.28903621883679415
7.626564917642566,0.28903621883679415
7.646626050881387,0.323040479876417
7.666687184120207,0.30603834935660557
7.686748317359026,0.323040479876417
7.706809450597847,0.18702343571792562
7.726870583836667,0.2720340883169827
7.746931717075488,0.2380298272773599
7.766992850314307,0.30603834935660557
7.787053983553128,0.2550319577971713
7.807115116791948,0.3910490019556627
7.827176250030768,0.2550319577971713
7.847237383269588,0.3570447409160398
7.867298516508409,0.40805113247547414
7.887359649747229,0.2720340883169827
7.9074207829860494,0.40805113247547414
7.9274819162248695,0.3570447409160398
7.9475430494636905,0.3570447409160398
7.96760418270251,0.5100639155943426
7.987665315941331,0.5950745681933998
8.00772644918015,0.6800852207924568
8.027787582418972,0.765095873391514
8.047848715657791,0.646080959752834
8.067909848896612,0.7991001344311368
8.087970982135431,0.6120766987132111
8.108032115374252,0.6290788292330226
8.128093248613073,0.5270660461141541
8.148154381851892,0.442055393515097
8.168215515090713,0.3400426103962284
8.188276648329532,0.3400426103962284
8.208337781568353,0.30603834935660557
8.228398914807174,0.2720340883169827
8.248460048045994,0.2550319577971713
8.268521181284815,0.11901491363867996
8.288582314523634,0.2720340883169827
8.308643447762455,0.2550319577971713
8.328704581001276,0.1700213051981142
8.348765714240095,0.2550319577971713
8.368826847478914,0.30603834935660557
8.388887980717737,0.1700213051981142
8.408949113956556,0.20402556623773707
8.429010247195375,0.18702343571792562
8.449071380434196,0.323040479876417
8.469132513673017,0.2210276967575485
8.489193646911838,0.2210276967575485
8.509254780150657,0.2210276967575485
8.529315913389476,0.2720340883169827
8.5493770466283,0.323040479876417
8.569438179867118,0.323040479876417
8.589499313105938,0.7480937428717025
8.609560446344759,0.6630830902726454
8.62962157958358,0.6970873513122683
8.649682712822399,0.5100639155943426
8.66974384606122,0.6630830902726454
8.689804979300039,0.4760596545547198
8.70986611253886,0.323040479876417
8.72992724577768,0.323040479876417
8.7499883790165,0.28903621883679415
8.770049512255321,0.3570447409160398
8.79011064549414,0.20402556623773707
8.810171778732961,0.30603834935660557
8.830232911971782,0.2380298272773599
8.850294045210601,0.2550319577971713
8.87035517844942,0.2380298272773599
8.890416311688243,0.323040479876417
8.910477444927063,0.30603834935660557
8.930538578165882,0.323040479876417
8.950599711404703,0.3910490019556627
8.970660844643524,0.1700213051981142
8.990721977882343,0.2210276967575485
9.010783111121164,0.18702343571792562
9.030844244359983,0.20402556623773707
9.050905377598806,0.2380298272773599
9.070966510837625,0.1700213051981142
9.091027644076444,0.15301917467830278
9.111088777315265,0.11901491363867996
9.131149910554086,0.3400426103962284
9.151211043792905,0.30603834935660557
9.171272177031726,0.15301917467830278
9.191333310270545,0.13601704415849136
9.211394443509366,0.30603834935660557
9.231455576748187,0.49306178507453124
9.251516709987007,0.2380298272773599
9.271577843225826,0.20402556623773707
9.291638976464647,0.2550319577971713
9.311700109703468,0.2380298272773599
9.331761242942289,0.2210276967575485
9.351822376181108,0.2550319577971713
9.371883509419927,0.18702343571792562
9.39194464265875,0.2720340883169827
9.412005775897569,0.2210276967575485
9.432066909136388,0.1700213051981142
9.45212804237521,0.13601704415849136
9.47218917561403,0.2210276967575485
9.49225030885285,0.20402556623773707
9.51231144209167,0.2210276967575485
9.53237257533049,0.2210276967575485
9.552433708569312,0.15301917467830278
9.572494841808131,0.15301917467830278
9.59255597504695,0.2720340883169827
9.612617108285772,0.18702343571792562
9.632678241524593,0.11901491363867996
9.652739374763412,0.20402556623773707
9.672800508002233,0.2550319577971713
9.692861641241052,0.15301917467830278
9.712922774479873,0.2210276967575485
9.732983907718694,0.15301917467830278
9.753045040957513,0.2210276967575485
9.773106174196332,0.18702343571792562
9.793167307435153,0.10201278311886854
9.813228440673974,0.10201278311886854
9.833289573912795,0.06800852207924568
9.853350707151614,0.13601704415849136
9.873411840390434,0.323040479876417
9.893472973629256,0.1700213051981142
9.913534106868076,0.15301917467830278
9.933595240106895,0.20402556623773707
9.953656373345716,0.20402556623773707
9.973717506584537,0.13601704415849136
9.993778639823356,0.18702343571792562
10.013839773062177,0.18702343571792562
10.033900906300996,0.01700213051981142
10.053962039539817,0.15301917467830278
10.074023172778638,0.1700213051981142
10.094084306017457,0.06800852207924568
10.114145439256278,0.20402556623773707
10.1342065724951,0.2210276967575485
10.154267705733918,0.1700213051981142
10.17432883897274,0.18702343571792562
10.194389972211559,0.18702343571792562
10.21445110545038,0.18702343571792562
10.2345122386892,0.18702343571792562
10.25457337192802,0.06800852207924568
10.274634505166839,0.20402556623773707
10.29469563840566,0.1700213051981142
10.31475677164448,0.15301917467830278
10.3348179048833,0.18702343571792562
10.354879038122121,0.10201278311886854
10.37494017136094,0.1700213051981142
10.395001304599763,0.13601704415849136
10.415062437838582,0.10201278311886854
10.435123571077401,0.11901491363867996
10.455184704316222,0.1700213051981142
10.475245837555043,0.2380298272773599
10.495306970793862,0.15301917467830278
10.515368104032683,0.20402556623773707
10.535429237271503,0.11901491363867996
10.555490370510324,0.20402556623773707
10.575551503749145,0.06800852207924568
10.595612636987964,0.15301917467830278
10.615673770226783,0.2210276967575485
10.635734903465606,0.13601704415849136
10.655796036704425,0.13601704415849136
10.675857169943246,0.1700213051981142
10.695918303182065,0.15301917467830278
10.715979436420886,0.13601704415849136
10.736040569659707,0.13601704415849136
10.756101702898526,0.1700213051981142
10.776162836137345,0.11901491363867996
10.796223969376166,0.15301917467830278
10.816285102614987,0.2550319577971713
10.836346235853807,0.13601704415849136
10.856407369092627,0.15301917467830278
10.876468502331447,0.323040479876417
