Energy (keV),Intensity (cps),slope,offset,liveTime
-0.016726846347951956,0.0,20.061133238820258,-16.726846347951955,56.858184814453125
0.0033342868908683024,0.0
0.02339542012968856,0.0
0.043456553368508816,0.0
0.06351768660732908,0.0
0.08357881984614934,0.0
0.1036399530849696,0.0
0.12370108632378987,0.0
0.14376221956261012,0.0
0.16382335280143037,0.0
0.18388448604025062,0.0
0.20394561927907087,0.0
0.22400675251789112,0.0
0.2440678857567114,0.0
0.2641290189955317,0.0
0.2841901522343519,0.0
0.30425128547317215,0.0
0.32431241871199246,0.0
0.34437355195081265,0.0
0.36443468518963296,0.0
0.3844958184284532,0.0
0.40455695166727346,0.0
0.4246180849060937,0.0
0.444679218144914,0.01758761738988551
0.4647403513837342,0.05276285216965653
0.48480148462255446,0.07035046955954204
0.5048626178613748,0.14070093911908407
0.524923751100195,0.31657711301793917
0.5449848843390153,0.5628037564763363
0.5650460175778355,0.896968486884161
0.5851071508166557,1.4070093911908408
0.605168284055476,2.2160397911255743
0.6252294172942963,2.655730225872712
0.6452905505331166,4.009976764893897
0.6653516837719368,5.4345737734746224
0.6854128170107571,6.261191790799241
0.7054739502495773,6.73605746032615
0.7255350834883975,6.859170782055349
0.7455962167272178,8.65310775582367
0.7656573499660381,10.130467616574053
0.7857184832048584,10.288756173083023
0.8057796164436786,10.587745668711078
0.8258407496824988,11.062611338237986
0.8459018829213191,10.640508520880733
0.8659630161601393,10.763621842609933
0.8860241493989596,11.51988939037501
0.9060852826377799,10.781209459999818
0.9261464158766002,10.587745668711078
0.9462075491154203,11.23848751213684
0.9662686823542406,10.271168555693137
0.9863298155930609,10.974673251288559
1.0063909488318812,10.869147546949245
1.0264520820707015,10.53498281654142
1.0465132153095218,10.53498281654142
1.0665743485483419,10.411869494812223
1.0866354817871622,10.85155992955936
1.1066966150259825,10.53498281654142
1.1267577482648028,10.587745668711078
1.1468188815036229,10.605333286100963
1.1668800147424432,9.180736277520236
1.1869411479812635,10.69327137305039
1.2070022812200836,10.49980758176165
1.2270634144589039,10.921910399118902
1.2471245476977242,10.130467616574053
1.2671856809365445,10.235993320913368
1.2872468141753648,10.675683755660504
1.307307947414185,9.901828590505541
1.3273690806530054,10.323931407862794
1.3474302138918255,9.778715268776343
1.3674913471306458,9.813890503556115
1.387552480369466,9.51490100792806
1.4076136136082862,9.972179060065084
1.4276747468471065,10.376694260032451
1.4477358800859268,10.112879999184168
1.467797013324747,9.831478120946
1.4878581465635672,10.34151902525268
1.5079192798023875,10.06011714701451
1.5279804130412078,10.024941912234741
1.548041546280028,9.849065738335886
1.5681026795188484,10.042529529624627
1.5881638127576687,9.110385807960695
1.608224945996489,9.602839094877488
1.6282860792353093,9.866653355725772
1.6483472124741294,9.937003825285313
1.6684083457129495,9.63801432965726
1.6884694789517698,10.939498016508788
1.70853061219059,10.376694260032451
1.7285917454294104,10.781209459999818
1.7486528786682307,10.49980758176165
1.768714011907051,11.062611338237986
1.788775145145871,9.98976667745497
1.8088362783846914,9.813890503556115
1.8288974116235117,9.426962920978633
1.848958544862332,9.35661245141909
1.8690196781011523,11.326425599086269
1.8890808113399726,10.728446607830161
1.9091419445787927,9.743540033996572
1.9292030778176128,10.53498281654142
1.949264211056433,11.080198955627871
1.9693253442952534,10.306343790472908
1.9893864775340737,10.622920903490847
2.009447610772894,10.53498281654142
2.0295087440117143,9.391787686198862
2.049569877250535,10.218405703523482
2.069631010489355,10.130467616574053
2.0896921437281755,10.921910399118902
2.1097532769669955,9.7083647992168
2.129814410205816,9.35661245141909
2.149875543444636,9.040035338401152
2.1699366766834562,10.781209459999818
2.1899978099222768,9.567663860097717
2.210058943161097,9.919416207895427
2.2301200763999174,10.288756173083023
2.2501812096387375,10.235993320913368
2.270242342877558,10.904322781729016
2.290303476116378,9.620426712267374
2.3103646093551977,9.761127651386458
2.3304257425940182,9.32143721663932
2.3504868758328383,9.567663860097717
2.370548009071659,10.376694260032451
2.390609142310479,9.268674364469664
2.4106702755492995,9.919416207895427
2.4307314087881196,9.954591442675198
2.4507925420269396,9.075210573180923
2.47085367526576,9.725952416606686
2.4909148085045802,9.690777181826915
2.5109759417434008,9.145561042740464
2.531037074982221,9.725952416606686
2.5510982082210414,9.057622955791038
2.5711593414598615,9.391787686198862
2.5912204746986816,9.110385807960695
2.611281607937502,8.899334399282068
2.631342741176322,9.057622955791038
2.6514038744151427,9.972179060065084
2.6714650076539628,8.705870607993328
2.6915261408927833,8.494819199314701
2.7115872741316034,9.092798190570809
2.7316484073704235,9.12797342535058
2.751709540609244,8.635520138433785
2.771770673848064,8.793808694942754
2.7918318070868846,8.793808694942754
2.8118929403257042,9.075210573180923
2.8319540735645248,8.81139631233264
2.852015206803345,8.055128764567563
2.872076340042165,8.828983929722526
2.8921374732809855,8.688282990603442
2.9121986065198056,9.040035338401152
2.932259739758626,9.057622955791038
2.952320872997446,9.12797342535058
2.9723820062362667,9.198323894910121
2.9924431394750868,8.793808694942754
3.0125042727139073,8.688282990603442
3.0325654059527274,8.81139631233264
3.0526265391915475,8.354118260195618
3.072687672430368,8.512406816704587
3.092748805669188,8.494819199314701
3.1128099389080086,8.600344903654014
3.1328710721468287,7.949603060228251
3.1529322053856492,8.125479234127106
3.1729933386244693,8.6179325210439
3.1930544718632894,8.178242086296763
3.21311560510211,8.002365912397908
3.23317673834093,8.600344903654014
3.2532378715797505,8.231004938466418
3.2732990048185706,8.846571547112411
3.293360138057391,8.283767790636075
3.3134212712962112,9.374200068808976
3.333482404535031,7.932015442838365
3.3535435377738514,7.932015442838365
3.3736046710126715,8.125479234127106
3.393665804251492,7.668201181990082
3.413726937490312,7.228510747242945
3.4337880707291326,7.7209640341597385
3.4538492039679527,6.788820312495806
3.473910337206773,6.8415831646654635
3.4939714704455933,7.808902121109166
3.5140326036844134,7.0174593385643185
3.534093736923234,7.298861216802487
3.554154870162054,7.984778295008021
3.5742160034008745,9.145561042740464
3.5942771366396946,13.032424485905162
3.6143382698785147,18.027307824632647
3.6343994031173352,29.160269632430175
3.6544605363561553,40.644983788025414
3.674521669594976,47.87349453526836
3.694582802833796,50.84580187415901
3.7146439360726164,47.961432622217785
3.7347050693114365,36.40636799706301
3.7547662025502566,25.994498502250785
3.774827335789077,16.60271081605192
3.7948884690278972,11.027436103458214
3.8149496022667178,8.442056347145044
3.8350107355055374,6.753645077716036
3.855071868744358,6.771232695105922
3.875133001983178,6.296367025579013
3.895194135221998,6.454655582087982
3.9152552684608186,6.8415831646654635
3.9353164016996387,7.844077355888937
3.9553775349384592,9.725952416606686
3.9754386681772793,11.537477007764894
3.9954998014161,12.487208346818711
4.01556093465492,12.76861022505688
4.0356220678937405,12.10028076424123
4.0556832011325605,9.98976667745497
4.075744334371381,9.092798190570809
4.095805467610201,7.984778295008021
4.115866600849021,7.4043869211418
4.135927734087841,5.715975651712791
4.155988867326662,5.17075951262634
4.176050000565481,5.416986156084737
4.196111133804302,5.504924243034164
4.216172267043122,4.942120486557828
4.236233400281942,4.731069077879202
4.256294533520762,4.731069077879202
4.276355666759583,5.241109982185882
4.296416799998403,5.258697599575767
4.316477933237223,5.135584277846569
4.3365390664760435,4.50243005181069
4.3566001997148645,4.81900716482863
4.376661332953684,5.469749008254394
4.396722466192505,7.0174593385643185
4.416783599431325,8.987272486231495
4.436844732670146,12.22339408597043
4.456905865908965,16.637886050831693
4.476966999147786,20.45439902443685
4.497028132386606,24.182973911092574
4.517089265625426,26.275900380488952
4.537150398864246,22.70561405034219
4.557211532103067,19.24085342453475
4.577272665341887,14.10526914668818
4.597333798580707,10.85155992955936
4.617394931819527,8.45964396453493
4.637456065058347,7.457149773311456
4.6575171982971675,6.876758399445234
4.677578331535988,7.105397425513746
4.6976394647748085,6.173253703849814
4.717700598013629,5.452161390864508
4.737761731252449,4.66071860831966
4.757822864491269,4.66071860831966
4.77788399773009,4.924532869167943
4.797945130968909,4.221028173572522
4.81800626420773,4.344141495301721
4.83806739744655,5.117996660456684
4.858128530685371,5.012470956117371
4.87818966392419,5.87426420822176
4.898250797163011,7.351624068972143
4.918311930401831,6.806407929885692
4.938373063640651,8.512406816704587
4.958434196879471,7.668201181990082
4.978495330118292,6.243604173409356
4.9985564633571125,5.979789912561073
5.0186175965959325,4.555192903980347
5.038678729834753,4.0803272344534385
5.058739863073574,4.009976764893897
5.078800996312393,3.042657808450193
5.098862129551214,3.411997773637789
5.118923262790034,3.271296834518705
5.138984396028854,3.4295853910276746
5.159045529267674,3.2888844519085905
5.179106662506494,2.8316063997715673
5.199167795745315,3.1657711301793916
5.219228928984134,2.9898949562805366
5.239290062222955,2.8316063997715673
5.259351195461775,3.658224417096186
5.279412328700596,3.042657808450193
5.2994734619394155,3.200946364959163
5.3195345951782365,3.376822538858018
5.3395957284170565,3.482348243197331
5.359656861655877,3.9396262953343544
5.379717994894697,3.8516882083849264
5.399779128133518,4.2034405561826365
5.419840261372338,3.9923891475040105
5.439901394611158,3.9923891475040105
5.459962527849978,3.763750121435499
5.480023661088799,3.394410156247903
5.500084794327618,2.6381426084828266
5.520145927566439,2.620554991092941
5.540207060805259,2.7436683128221397
5.56026819404408,2.3039778780750018
5.580329327282899,2.23362740851546
5.60039046052172,2.1984521737356886
5.62045159376054,2.409503582414315
5.64051272699936,2.5326169041435134
5.6605738602381805,1.8818750607177495
5.680634993477001,2.0577512346166045
5.700696126715822,2.07533885200649
5.720757259954641,1.8818750607177495
5.740818393193462,2.7788435476019107
5.760879526432282,2.58537975631317
5.780940659671102,3.060245425840079
5.801001792909922,3.077833043229964
5.821062926148743,4.537605286590462
5.841124059387563,5.645625182153249
5.861185192626383,7.228510747242945
5.881246325865203,7.738551651549624
5.901307459104024,8.10789161673722
5.921368592342843,7.281273599412601
5.941429725581664,6.296367025579013
5.9614908588204845,5.4345737734746224
5.981551992059305,5.100409043066798
6.001613125298125,3.376822538858018
6.021674258536946,2.550204521533399
6.041735391775766,2.1632769389559177
6.061796525014587,2.2160397911255743
6.081857658253406,2.3039778780750018
6.101918791492227,2.7084930780423684
6.121979924731047,2.5150292867536277
6.142041057969867,2.866781634551338
6.162102191208687,3.1833587475692773
6.182163324447507,3.552698712756873
6.202224457686328,5.891851825611646
6.222285590925147,9.409375303588748
6.242346724163968,19.258441041924634
6.262407857402788,40.99673613582312
6.2824689906416085,81.02615331520255
6.3025301238804285,149.82891254443464
6.3225912571192495,245.22414926717366
6.34265239035807,366.52594640521403
6.36271352359689,487.95085686498356
6.38277465683571,578.1929216924862
6.402835790074531,606.1044704902345
6.42289692331335,570.7709471539545
6.442958056552171,480.37059376994296
6.463019189790991,354.4784284931425
6.483080323029812,241.51316199790782
6.503141456268631,142.3893503885131
6.523202589507452,78.44077355888938
6.543263722746272,36.00185279709564
6.563324855985092,16.936875546459746
6.583385989223912,8.45964396453493
6.603447122462733,5.100409043066798
6.623508255701553,3.0074825736704223
6.6435693889403735,2.901956869331109
6.663630522179194,3.1481835127895064
6.683691655418014,2.6733178432625975
6.703752788656834,2.3391531128547727
6.723813921895654,2.690905460652483
6.743875055134475,2.6029673737030556
6.763936188373295,2.7084930780423684
6.783997321612115,3.0074825736704223
6.804058454850935,2.796431164991796
6.824119588089756,2.9195444867209948
6.844180721328575,3.9923891475040105
6.864241854567396,4.66071860831966
6.884302987806216,6.419480347308211
6.904364121045037,9.268674364469664
6.9244252542838565,13.419352068482644
6.944486387522677,24.851303371908227
6.9645475207614975,37.67267644913476
6.984608654000318,54.0115730043384
7.004669787239138,73.5514159245012
7.024730920477959,90.6641676448598
7.044792053716779,102.46545891347299
7.064853186955599,103.6438292785953
7.084914320194419,92.95055790554493
7.10497545343324,80.18194768048804
7.125036586672059,59.586847716932105
7.14509771991088,37.93649070998305
7.1651588531497,24.693014815399255
7.18521998638852,14.703248137944286
7.20528111962734,7.474737390701342
7.22534225286616,4.009976764893897
7.245403386104981,2.0577512346166045
7.2654645193438006,1.3366589216312987
7.2855256525826215,1.143195130342558
7.305586785821442,1.072844660783016
7.325647919060263,0.7210923129853058
7.345709052299082,1.0552570433931305
7.365770185537903,1.2663084520717567
7.385831318776723,1.4421846259706117
7.405892452015543,1.8115245911582074
7.425953585254363,1.6532360346492379
7.446014718493184,1.934637912887406
7.466075851732004,2.374328347634544
7.486136984970824,2.2160397911255743
7.506198118209644,1.8818750607177495
7.526259251448465,1.9698131476671772
7.546320384687284,1.4773598607503828
7.566381517926105,1.037669426003245
7.586442651164925,1.3894217738009553
7.606503784403746,0.9497313390538176
7.626564917642566,0.7210923129853058
7.646626050881387,0.7210923129853058
7.666687184120207,0.9145561042740465
7.686748317359026,0.7914427825448479
7.706809450597847,0.932143721663932
7.726870583836667,1.0200818086133596
7.746931717075488,0.896968486884161
7.766992850314307,0.9145561042740465
7.787053983553128,0.8793808694942755
7.807115116791948,1.1256075129526726
7.827176250030768,1.0552570433931305
7.847237383269588,0.9497313390538176
7.867298516508409,0.932143721663932
7.887359649747229,0.932143721663932
7.9074207829860494,1.2487208346818712
7.9274819162248695,1.3542465390211842
7.9475430494636905,1.6004731824795815
7.96760418270251,2.5150292867536277
7.987665315941331,3.077833043229964
8.00772644918015,3.3064720692984757
8.027787582418972,3.7461625040456137
8.047848715657791,3.482348243197331
8.067909848896612,3.3064720692984757
8.087970982135431,2.8491940171614525
8.108032115374252,2.3567407302446584
8.128093248613073,2.268802643295231
8.148154381851892,1.6004731824795815
8.168215515090713,1.4773598607503828
8.188276648329532,0.9849065738335886
8.208337781568353,0.7035046955954204
8.228398914807174,0.9497313390538176
8.248460048045994,0.9145561042740465
8.268521181284815,0.932143721663932
8.288582314523634,0.967318956443703
8.308643447762455,0.7562675477650769
8.328704581001276,0.9497313390538176
8.348765714240095,0.8090303999347335
8.368826847478914,0.5452161390864508
8.388887980717737,0.7035046955954204
8.408949113956556,0.5979789912561073
8.429010247195375,0.6331542260358783
8.449071380434196,0.7210923129853058
8.469132513673017,0.6155666086459929
8.489193646911838,0.8793808694942755
8.509254780150657,0.967318956443703
8.529315913389476,1.4070093911908408
8.5493770466283,1.3542465390211842
8.569438179867118,1.8466998259379785
8.589499313105938,2.5326169041435134
8.609560446344759,3.0074825736704223
8.62962157958358,3.3240596866883614
8.649682712822399,2.58537975631317
8.66974384606122,2.58537975631317
8.689804979300039,2.3215654954648874
8.70986611253886,1.6708236520391235
8.72992724577768,1.3718341564110699
8.7499883790165,0.932143721663932
8.770049512255321,0.932143721663932
8.79011064549414,0.8090303999347335
8.810171778732961,0.9145561042740465
8.830232911971782,0.932143721663932
8.850294045210601,1.1783703651223292
8.87035517844942,0.9145561042740465
8.890416311688243,1.1783703651223292
8.910477444927063,1.072844660783016
8.930538578165882,1.0024941912234742
8.950599711404703,0.896968486884161
8.970660844643524,0.7738551651549624
8.990721977882343,0.8793808694942755
9.010783111121164,0.6331542260358783
9.030844244359983,0.7386799303751914
9.050905377598806,0.6859170782055349
9.070966510837625,0.7386799303751914
9.091027644076444,0.5452161390864508
9.111088777315265,0.6331542260358783
9.131149910554086,0.8442056347145045
9.151211043792905,0.8793808694942755
9.171272177031726,0.9849065738335886
9.191333310270545,1.1080198955627871
9.211394443509366,1.037669426003245
9.231455576748187,1.1080198955627871
9.251516709987007,1.0024941912234742
9.271577843225826,1.3718341564110699
9.291638976464647,1.2311332172919858
9.311700109703468,1.037669426003245
9.331761242942289,0.8090303999347335
9.351822376181108,0.8090303999347335
9.371883509419927,0.932143721663932
9.39194464265875,0.6683294608156494
9.412005775897569,0.6507418434257639
9.432066909136388,0.43969043474713776
9.45212804237521,0.4924532869167943
9.47218917561403,0.86179325210439
9.49225030885285,0.7562675477650769
9.51231144209167,0.896968486884161
9.53237257533049,0.9145561042740465
9.552433708569312,1.1607827477324437
9.572494841808131,1.1783703651223292
9.59255597504695,0.932143721663932
9.612617108285772,0.8090303999347335
9.632678241524593,0.7562675477650769
9.652739374763412,0.86179325210439
9.672800508002233,0.8266180173246189
9.692861641241052,0.7386799303751914
9.712922774479873,0.6155666086459929
9.732983907718694,0.6683294608156494
9.753045040957513,0.5452161390864508
9.773106174196332,0.5803913738662219
9.793167307435153,0.6507418434257639
9.813228440673974,0.7035046955954204
9.833289573912795,0.42210281735725225
9.853350707151614,0.6859170782055349
9.873411840390434,0.5276285216965653
9.893472973629256,0.5979789912561073
9.913534106868076,0.7386799303751914
9.933595240106895,0.6331542260358783
9.953656373345716,0.4748656695269088
9.973717506584537,0.4748656695269088
9.993778639823356,0.3693399651875957
10.013839773062177,0.6155666086459929
10.033900906300996,0.3517523477977102
10.053962039539817,0.3869275825774812
10.074023172778638,0.45727805213702327
10.094084306017457,0.4748656695269088
10.114145439256278,0.7386799303751914
10.1342065724951,0.6155666086459929
10.154267705733918,0.6155666086459929
10.17432883897274,0.4924532869167943
10.194389972211559,0.4748656695269088
10.21445110545038,0.6683294608156494
10.2345122386892,0.5979789912561073
10.25457337192802,0.6859170782055349
10.274634505166839,0.6507418434257639
10.29469563840566,0.5100409043066798
10.31475677164448,0.7035046955954204
10.3348179048833,0.4924532869167943
10.354879038122121,0.6331542260358783
10.37494017136094,0.7035046955954204
10.395001304599763,0.3693399651875957
10.415062437838582,0.6507418434257639
10.435123571077401,0.45727805213702327
10.455184704316222,0.4748656695269088
10.475245837555043,0.5628037564763363
10.495306970793862,0.4748656695269088
10.515368104032683,0.42210281735725225
10.535429237271503,0.4748656695269088
10.555490370510324,0.4924532869167943
10.575551503749145,0.5452161390864508
10.595612636987964,0.7210923129853058
10.615673770226783,0.5628037564763363
10.635734903465606,0.5979789912561073
10.655796036704425,0.4748656695269088
10.675857169943246,0.5452161390864508
10.695918303182065,0.3693399651875957
10.715979436420886,0.4924532869167943
10.736040569659707,0.43969043474713776
10.756101702898526,0.4748656695269088
10.776162836137345,0.4924532869167943
10.796223969376166,0.4748656695269088
10.816285102614987,0.5276285216965653
10.836346235853807,0.7210923129853058
10.856407369092627,0.6507418434257639
10.876468502331447,0.5803913738662219
10.896529635570268,0.4748656695269088
10.916590768809089,0.6331542260358783
10.936651902047908,0.45727805213702327
10.956713035286729,0.5276285216965653
10.97677416852555,0.5452161390864508
