Energy (keV),Intensity (cps),slope,offset,liveTime
-0.016726846347951956,0.0,20.061133238820258,-16.726846347951955,48.000404357910156
0.0033342868908683024,0.0
0.02339542012968856,0.0
0.043456553368508816,0.0
0.06351768660732908,0.0
0.08357881984614934,0.0
0.1036399530849696,0.0
0.12370108632378987,0.0
0.14376221956261012,0.0
0.16382335280143037,0.0
0.18388448604025062,0.0
0.20394561927907087,0.0
0.22400675251789112,0.0
0.2440678857567114,0.0
0.2641290189955317,0.0
0.2841901522343519,0.0
0.30425128547317215,0.0
0.32431241871199246,0.0
0.34437355195081265,0.0
0.36443468518963296,0.0
0.3844958184284532,0.0
0.40455695166727346,0.0
0.4246180849060937,0.0
0.444679218144914,0.0
0.4647403513837342,0.0
0.48480148462255446,0.0
0.5048626178613748,0.062499473496739816
0.524923751100195,0.16666526265797282
0.5449848843390153,0.27083105181920586
0.5650460175778355,0.3749968409804389
0.5851071508166557,0.9374921024510972
0.605168284055476,1.1666568386058098
0.6252294172942963,1.6041531530829884
0.6452905505331166,1.9791499940634274
0.6653516837719368,2.583311571198579
0.6854128170107571,3.6874689363076487
0.7054739502495773,3.541636831481923
0.7255350834883975,4.4999620917652665
0.7455962167272178,4.812459459248966
0.7656573499660381,5.187456300229404
0.7857184832048584,5.937449982190282
0.8057796164436786,5.270788931558391
0.8258407496824988,7.020774189467105
0.8459018829213191,9.02075734136278
0.8659630161601393,10.583244178781275
0.8860241493989596,11.624902070393604
0.9060852826377799,17.999848367061066
0.9261464158766002,24.812290978205706
0.9462075491154203,27.520601496397763
0.9662686823542406,26.478943604785435
0.9863298155930609,18.541510470699478
1.0063909488318812,14.499877851243637
1.0264520820707015,13.24988838130884
1.0465132153095218,15.062373112714294
1.0665743485483419,17.874849420067587
1.0866354817871622,18.52067731286723
1.1066966150259825,16.583193634468298
1.1267577482648028,16.18736363565561
1.1468188815036229,15.208205217540021
1.1668800147424432,18.124847314054545
1.1869411479812635,27.458102022901024
1.2070022812200836,38.72884041014644
1.2270634144589039,53.041219840899856
1.2471245476977242,54.35370878433139
1.2671856809365445,47.81209722500596
1.2872468141753648,33.270553058097825
1.307307947414185,21.16648835756255
1.3273690806530054,15.416536795862488
1.3474302138918255,14.687376271733855
1.3674913471306458,17.895682577899834
1.387552480369466,37.520517255876136
1.4076136136082862,91.95755867153652
1.4276747468471065,223.06062090986438
1.4477358800859268,413.43401718093384
1.467797013324747,577.1201382688954
1.4878581465635672,603.9324123989968
1.5079192798023875,487.55839274806726
1.5279804130412078,311.6015416969125
1.548041546280028,166.51943055314712
1.5681026795188484,92.43672130167818
1.5881638127576687,58.20784298329701
1.608224945996489,57.937011931477805
1.6282860792353093,132.64471591791414
1.6483472124741294,417.4756498003897
1.6684083457129495,1162.0318775670512
1.6884694789517698,2498.7914498731543
1.70853061219059,4175.3398264232
1.7285917454294104,5246.747467419978
1.7486528786682307,5045.561662233973
1.768714011907051,3733.593547748243
1.788775145145871,2187.8982355425383
1.8088362783846914,1113.719784554071
1.8288974116235117,557.4328041174224
1.848958544862332,316.76816483930963
1.8690196781011523,205.31077043679028
1.8890808113399726,163.12362582649092
1.9091419445787927,159.2694916275253
1.9292030778176128,175.93601789332257
1.949264211056433,188.97757469630895
1.9693253442952534,173.33187316429175
1.9893864775340737,143.79045535816607
2.009447610772894,112.45738597846717
2.0295087440117143,86.27010658333319
2.049569877250535,65.66611348724129
2.069631010489355,47.8745966985027
2.0896921437281755,40.85382250903559
2.1097532769669955,36.08302936545112
2.129814410205816,36.39552673293482
2.149875543444636,39.43716777644282
2.1699366766834562,38.499675673991725
2.1899978099222768,42.66630724044104
2.210058943161097,46.22877722975522
2.2301200763999174,56.37452509405931
2.2501812096387375,68.02026032228517
2.270242342877558,80.6451539686266
2.290303476116378,84.99928395556614
2.3103646093551977,86.29093974116543
2.3304257425940182,84.77011921941143
2.3504868758328383,85.27011500738536
2.370548009071659,79.77016133967224
2.390609142310479,77.10351713714468
2.4106702755492995,70.66607136698047
2.4307314087881196,63.478631914855406
2.4507925420269396,57.91617877364556
2.47085367526576,57.60368140616186
2.4909148085045802,60.291158766521676
2.5109759417434008,63.83279559800359
2.531037074982221,69.45774821271017
2.5510982082210414,88.22842341956436
2.5711593414598615,121.62397542465567
2.5912204746986816,191.01922416386913
2.611281607937502,321.2264606154104
2.631342741176322,530.3288657776695
2.6514038744151427,828.0138580426412
2.6714650076539628,1104.6573608970439
2.6915261408927833,1269.5101388236112
2.7115872741316034,1223.948022644488
2.7316484073704235,1011.3664801242436
2.751709540609244,758.6602756190923
2.771770673848064,622.1197591865481
2.7918318070868846,611.890678690915
2.8118929403257042,692.1400026607289
2.8319540735645248,748.743692490943
2.852015206803345,735.2438062156472
2.872076340042165,678.7234490167621
2.8921374732809855,633.6821617834449
2.9121986065198056,652.2653385698089
2.932259739758626,713.8273199640977
2.952320872997446,745.4312203956157
2.9723820062362667,688.1608695147698
2.9924431394750868,566.9327240889269
3.0125042727139073,396.26749512716265
3.0325654059527274,263.747778156242
3.0526265391915475,167.04025949895328
3.072687672430368,114.95736491833676
3.092748805669188,100.16582285744167
3.1128099389080086,104.10328968773628
3.1328710721468287,116.35318649309728
3.1529322053856492,133.97803801917792
3.1729933386244693,146.06126956188095
3.1930544718632894,159.22782531186078
3.21311560510211,176.8318436801092
3.23317673834093,221.26896933629118
3.2532378715797505,314.60151642475597
3.2732990048185706,441.3087823604798
3.293360138057391,555.2453225450365
3.3134212712962112,621.5364307672452
3.333482404535031,580.7242745738741
3.3535435377738514,461.6627775625847
3.3736046710126715,323.2264437673061
3.393665804251492,210.08156358037476
3.413726937490312,139.9571543170327
3.4337880707291326,107.74909230837943
3.4538492039679527,93.81170971860645
3.473910337206773,99.01999917666811
3.4939714704455933,109.39491177712692
3.5140326036844134,134.60303275414532
3.534093736923234,196.5608441472467
3.554154870162054,362.78861049074237
3.5742160034008745,784.3683923840847
3.5942771366396946,1735.652045320129
3.6143382698785147,3503.720484227234
3.6343994031173352,6189.052029330324
3.6544605363561553,9332.025552534376
3.674521669594976,11872.024988599715
3.694582802833796,12680.164014070393
3.7146439360726164,11401.841449483742
3.7347050693114365,8629.44813779969
3.7547662025502566,5502.224481916818
3.774827335789077,2949.370987468984
3.7948884690278972,1383.5091784816648
3.8149496022667178,595.6824818974271
3.8350107355055374,287.0392486126937
3.855071868744358,190.01923258792127
3.875133001983178,187.0817573335745
3.895194135221998,254.22702502690532
3.9152552684608186,400.8091235345924
3.9353164016996387,652.4736701481314
3.9553775349384592,1030.7413169082329
3.9754386681772793,1455.591904581238
3.9954998014161,1806.8389456329157
4.01556093465492,1945.4627778486847
4.0356220678937405,1794.7557140902127
4.0556832011325605,1429.92545413191
4.075744334371381,984.0125438905038
4.095805467610201,602.3490924037461
4.115866600849021,341.01796055604467
4.135927734087841,194.47752836402205
4.155988867326662,131.10306223832788
4.176050000565481,105.18661389501311
4.196111133804302,98.99916601883587
4.216172267043122,99.62416075380327
4.236233400281942,98.72833496701665
4.256294533520762,99.22833075499058
4.276355666759583,101.5199781165377
4.296416799998403,104.0616233720718
4.316477933237223,106.58243546977363
4.3365390664760435,120.6031506908756
4.3566001997148645,147.5612569258027
4.376661332953684,218.3314940819444
4.396722466192505,377.18432255282477
4.416783599431325,681.9942547964248
4.436844732670146,1184.5108548680453
4.456905865908965,1840.3178302693361
4.476966999147786,2524.9995624261205
4.497028132386606,2980.224894218541
4.517089265625426,3094.8697617693942
4.537150398864246,2736.560280212585
4.557211532103067,2127.6695762495133
4.577272665341887,1436.3004004285776
4.597333798580707,884.3675499788684
4.617394931819527,531.5580220897721
4.637456065058347,332.41386637132683
4.6575171982971675,244.06044400476895
4.677578331535988,205.62326780427398
4.6976394647748085,184.8526094455241
4.717700598013629,174.12353316191712
4.737761731252449,166.43609792181812
4.757822864491269,164.91527740006413
4.77788399773009,168.31108212672032
4.797945130968909,188.74840996015422
4.81800626420773,214.5606925143078
4.83806739744655,268.49773814199426
4.858128530685371,357.434488927855
4.87818966392419,466.1419064965178
4.898250797163011,578.7451245798106
4.918311930401831,668.2652037849743
4.938373063640651,685.7858895218938
4.958434196879471,644.3070722778907
4.978495330118292,546.078733098848
4.9985564633571125,426.39224135259127
5.0186175965959325,321.85145535037776
5.038678729834753,237.95632875992072
5.058739863073574,188.93590838064446
5.078800996312393,171.04022580274463
5.098862129551214,157.41534058045534
5.118923262790034,156.26951689968178
5.138984396028854,158.43616531423544
5.159045529267674,158.58199741906114
5.179106662506494,159.8944863624927
5.199167795745315,161.89446951438836
5.219228928984134,165.12360897838659
5.239290062222955,163.6027884566326
5.259351195461775,167.58192160259168
5.279412328700596,172.16521632568595
5.2994734619394155,178.20683209703745
5.3195345951782365,196.89417467256266
5.3395957284170565,215.39401882759765
5.359656861655877,254.60202186788575
5.379717994894697,285.122598092127
5.399779128133518,304.93493119059355
5.419840261372338,316.35150168266466
5.439901394611158,305.95575592437365
5.459962527849978,282.8726170462444
5.480023661088799,253.39369871361544
5.500084794327618,222.81062301587744
5.520145927566439,195.79001730745358
5.540207060805259,176.37351420779976
5.56026819404408,164.43611476992245
5.580329327282899,159.70698794200246
5.60039046052172,162.72779582767822
5.62045159376054,158.58199741906114
5.64051272699936,156.49868163583648
5.6605738602381805,155.72785479604337
5.680634993477001,153.81120427547668
5.700696126715822,154.852862167089
5.720757259954641,155.72785479604337
5.740818393193462,162.0403016192141
5.760879526432282,171.06105896057687
5.780940659671102,184.06094944789874
5.801001792909922,214.26902830465633
5.821062926148743,251.24788345689404
5.841124059387563,304.9140980327613
5.861185192626383,358.5178131351318
5.881246325865203,389.01755620154086
5.901307459104024,404.579925102229
5.921368592342843,385.0175898977495
5.941429725581664,346.74707895991247
5.9614908588204845,285.66426019576545
5.981551992059305,242.456290851686
6.001613125298125,199.24832150760653
6.021674258536946,176.85267683794143
6.041735391775766,160.60281372878907
6.061796525014587,156.47784847800423
6.081857658253406,151.68622217658753
6.101918791492227,152.6237142790386
6.121979924731047,159.47782320584776
6.142041057969867,165.37360687237356
6.162102191208687,175.0193589487037
6.182163324447507,198.97749045578732
6.202224457686328,236.03967823935403
6.222285590925147,336.43466583295043
6.242346724163968,554.2661641269209
6.262407857402788,1018.9705827330137
6.2824689906416085,1928.587920004565
6.3025301238804285,3414.033739759412
6.3225912571192495,5554.599040707087
6.34265239035807,8162.889568146529
6.36271352359689,10817.888035445869
6.38277465683571,12783.45481060267
6.402835790074531,13432.824340233798
6.42289692331335,12619.331193200233
6.442958056552171,10573.202596706133
6.463019189790991,7940.203944077645
6.483080323029812,5347.809116064206
6.503141456268631,3244.993497108563
6.523202589507452,1822.6096461119264
6.543263722746272,969.5126660392602
6.563324855985092,519.6622889675593
6.583385989223912,317.18482799595455
6.603447122462733,227.3105851076427
6.623508255701553,198.99832361361956
6.6435693889403735,187.81091785770315
6.663630522179194,181.87346787551286
6.683691655418014,187.60258627938066
6.703752788656834,176.41518052346424
6.723813921895654,176.64434525961894
6.743875055134475,176.311014734303
6.763936188373295,175.43602210534866
6.783997321612115,177.0610084162639
6.804058454850935,183.0609578719509
6.824119588089756,192.14421468681044
6.844180721328575,196.95667414605938
6.864241854567396,212.03988041660594
6.884302987806216,250.72705451108789
6.904364121045037,303.7474411941555
6.9244252542838565,412.9965208664567
6.944486387522677,585.3284024548005
6.9645475207614975,855.0552969088974
6.984608654000318,1189.3441474851263
7.004669787239138,1573.3409126490958
7.024730920477959,1906.4422732288867
7.044792053716779,2117.3571631225514
7.064853186955599,2126.7529173048947
7.084914320194419,1941.3169794400676
7.10497545343324,1613.1322441086868
7.125036586672059,1217.1147468755112
7.14509771991088,845.8053748313799
7.1651588531497,547.3703888844473
7.18521998638852,343.62210528507546
7.20528111962734,220.31064407600783
7.22534225286616,154.43619901044408
7.245403386104981,124.68644962599592
7.2654645193438006,114.45736913036285
7.2855256525826215,118.33233648716072
7.305586785821442,124.89478120431839
7.325647919060263,134.70719854330653
7.345709052299082,147.18626008482227
7.365770185537903,158.0195021575905
7.385831318776723,165.49860581936701
7.405892452015543,163.68612108796157
7.425953585254363,156.457015320172
7.446014718493184,141.87380483759938
7.466075851732004,134.24886907099713
7.486136984970824,121.99897226563611
7.506198118209644,111.91572387482876
7.526259251448465,104.9574491588584
7.546320384687284,99.3741628598163
7.566381517926105,98.02000760072028
7.586442651164925,94.16587340175465
7.606503784403746,98.04084075855252
7.626564917642566,97.06168234043693
7.646626050881387,100.8949833815703
7.666687184120207,101.85330864185364
7.686748317359026,105.12411442151637
7.706809450597847,106.01994020830297
7.726870583836667,107.6865928348827
7.746931717075488,102.66580179731126
7.766992850314307,100.37415443576414
7.787053983553128,94.7700349788898
7.807115116791948,91.74922709321405
7.827176250030768,93.37421340412928
7.847237383269588,91.47839604139484
7.867298516508409,90.37423867628577
7.887359649747229,87.27009815928102
7.9074207829860494,90.74923551726621
7.9274819162248695,88.9992502593575
7.9475430494636905,89.5825786786604
7.96760418270251,88.52008762921582
7.987665315941331,90.12424078229881
8.00772644918015,93.97837498126444
8.027787582418972,100.47832022492537
8.047848715657791,109.54074388195265
8.067909848896612,120.72814963786907
8.087970982135431,130.24890276720578
8.108032115374252,146.8945958751708
8.128093248613073,154.20703427428936
8.148154381851892,160.22781688780864
8.168215515090713,162.8527947746717
8.188276648329532,152.35288322721942
8.208337781568353,145.1029443015976
8.228398914807174,134.22803591316486
8.248460048045994,123.10312963074519
8.268521181284815,107.83242493970842
8.288582314523634,98.68666865135216
8.308643447762455,91.47839604139484
8.328704581001276,84.60345395675346
8.348765714240095,78.60350450106644
8.368826847478914,77.47851397812512
8.388887980717737,75.68686240455192
8.408949113956556,74.39520661895263
8.429010247195375,75.37436503706822
8.449071380434196,74.08270925146893
8.469132513673017,72.83271978153412
8.489193646911838,77.14518345280918
8.509254780150657,75.29103240573923
8.529315913389476,76.85351924315772
8.5493770466283,75.43686451056496
8.569438179867118,75.56186345755843
8.589499313105938,74.74937030210081
8.609560446344759,75.64519608888742
8.62962157958358,74.72853714426857
8.649682712822399,71.99939346824426
8.66974384606122,74.62437135510734
8.689804979300039,74.81186977559756
8.70986611253886,71.1244008392899
8.72992724577768,71.4368982067736
8.7499883790165,73.81187819964971
8.770049512255321,72.74938715020514
8.79011064549414,71.20773347061889
8.810171778732961,71.68689610076056
8.830232911971782,67.27026664032428
8.850294045210601,65.91611138122826
8.87035517844942,65.18695085709962
8.890416311688243,62.14530981359162
8.910477444927063,61.10365192197929
8.930538578165882,61.74947981477894
8.950599711404703,61.686980341282194
8.970660844643524,62.16614297142387
8.990721977882343,63.5202982305199
9.010783111121164,63.12446823170721
9.030844244359983,66.62443874752464
9.050905377598806,66.81193716801486
9.070966510837625,65.54111454024782
9.091027644076444,66.74943769451812
9.111088777315265,65.24945033059636
9.131149910554086,65.79111243423478
9.151211043792905,61.707813499114444
9.171272177031726,60.20782613519268
9.191333310270545,58.791171402599915
9.211394443509366,54.97870351929879
9.231455576748187,55.062036150627776
9.251516709987007,53.22871826139007
9.271577843225826,51.29123458299114
9.291638976464647,51.08290300466867
9.311700109703468,48.99958722144401
9.331761242942289,48.666256696128066
9.351822376181108,48.812088800953795
9.371883509419927,47.70793143584472
9.39194464265875,45.1037867068139
9.412005775897569,41.270485665680525
9.432066909136388,41.16631987651929
9.45212804237521,39.12467040895912
9.47218917561403,37.645516202869615
9.49225030885285,34.29137779187791
9.51231144209167,33.93721410872972
9.53237257533049,33.35388568942681
9.552433708569312,32.853889901452895
9.572494841808131,31.020572012215194
9.59255597504695,31.208070432705412
9.612617108285772,31.10390464354418
9.632678241524593,30.18724569892533
9.652739374763412,31.89556464116955
9.672800508002233,28.999755702487274
9.692861641241052,30.791407276060482
9.712922774479873,29.416418859132204
9.732983907718694,29.562250963957933
9.753045040957513,27.770599390384724
9.773106174196332,24.708125189044473
9.793167307435153,23.541468350438663
9.813228440673974,21.249820988891535
9.833289573912795,20.937323621407838
9.853350707151614,19.520668888815067
9.873411840390434,19.958165203292246
9.893472973629256,21.270654146723782
9.913534106868076,23.2914704564517
9.933595240106895,29.02058886031952
9.953656373345716,35.291369367825745
9.973717506584537,46.85377196472261
9.993778639823356,61.93697823526915
10.013839773062177,87.14509921228755
10.033900906300996,107.62409336138596
10.053962039539817,128.832248034613
10.074023172778638,146.6654311390161
10.094084306017457,152.4778821742129
10.114145439256278,147.5612569258027
10.1342065724951,133.76970644085546
10.154267705733918,114.70736702434981
10.17432883897274,88.62425341837705
10.194389972211559,63.68696349317787
10.21445110545038,46.22877722975522
10.2345122386892,31.27056990620215
10.25457337192802,22.812307826310033
10.274634505166839,17.874849420067587
10.29469563840566,16.74985889712627
10.31475677164448,17.937348893564327
10.3348179048833,20.06233099245348
10.354879038122121,22.10398046001365
10.37494017136094,26.291445184295213
10.395001304599763,27.520601496397763
10.415062437838582,28.541426230177848
10.435123571077401,28.020597284371682
10.455184704316222,26.24977886863072
10.475245837555043,21.812316250362194
10.495306970793862,19.27067099482811
10.515368104032683,15.83319995250742
10.535429237271503,12.958224171657388
10.555490370510324,10.97907417759396
10.575551503749145,10.24991365346533
10.595612636987964,10.145747864304097
10.615673770226783,10.354079442626562
10.635734903465606,13.12488943431536
10.655796036704425,15.937365741668652
10.675857169943246,18.93734046951216
10.695918303182065,22.916473615471265
10.715979436420886,26.770607814436886
10.736040569659707,28.29142833619089
10.756101702898526,30.81224043389273
10.776162836137345,31.374735695363384
10.796223969376166,33.56221726774928
10.816285102614987,32.999722006278624
10.836346235853807,34.6455414750261
10.856407369092627,38.12467883301129
10.876468502331447,38.45800935832723
10.896529635570268,41.124653560854796
10.916590768809089,41.124653560854796
10.936651902047908,40.1871614584037
10.956713035286729,34.68720779069059
10.97677416852555,31.749732536343824
10.996835301764369,26.6872751831079
11.01689643500319,22.062314144349155
