Energy (keV),Intensity (cps),slope,offset,liveTime
-0.016753362679535415,0.0,20.051730854418228,-16.753362679535414,114.05200958251953
0.003298368174882814,0.0
0.023350099029301043,0.0
0.043401829883719274,0.0
0.0634535607381375,0.0
0.08350529159255572,0.0
0.10355702244697396,0.0
0.12360875330139219,0.0
0.14366048415581043,0.0
0.16371221501022865,0.0
0.18376394586464687,0.0
0.2038156767190651,0.0
0.2238674075734833,0.0
0.24391913842790156,0.0
0.2639708692823198,0.0
0.28402260013673797,0.0
0.3040743309911562,0.0
0.32412606184557446,0.0
0.34417779269999266,0.0
0.3642295235544109,0.0
0.3842812544088291,0.0
0.40433298526324735,0.0
0.42438471611766554,0.0
0.4444364469720838,0.00876792968103271
0.4644881778265021,0.03507171872413084
0.4845399086809203,0.03507171872413084
0.5045916395353385,0.13151894521549065
0.5246433703897568,0.2805737497930467
0.544695101244175,0.543611640224028
0.5647468320985932,0.9294005461894672
0.5847985629530115,1.8324973033358363
0.6048502938074297,2.3936448029219295
0.624902024661848,2.937256443145958
0.6449537555162661,3.98064007518885
0.6650054863706844,5.0941671446800045
0.6850572172251026,6.37428487811078
0.7051089480795208,7.487811947601934
0.725160678933939,8.162942533041452
0.7452124097883572,9.232629954127443
0.7652641406427755,9.679794367860111
0.7853158714971937,9.977903977015224
0.805367602351612,10.372460812661695
0.8254193332060301,10.495211828196153
0.8454710640604484,10.793321437351265
0.8655227949148666,10.881000734161592
0.8855745257692849,10.889768663842625
0.9056262566237031,11.354468936937359
0.9256779874781212,11.135270694911542
0.9457297183325396,11.512291671195948
0.9657814491869579,11.54736338992008
0.9858331800413761,10.845929015437461
1.0058849108957943,11.301861358851163
1.0259366417502125,10.688106281178873
1.0459883726046306,10.916072452885723
1.0660401034590488,11.06512725746328
1.086091834313467,10.311085304894466
1.1061435651678853,10.635498703092676
1.1261952960223034,10.319853234575499
1.1462470268767218,10.933608312247788
1.16629875773114,10.951144171609855
1.1863504885855582,10.530283546920284
1.2064022194399764,10.328621164256532
1.2264539502943947,10.986215890333986
1.2465056811488127,10.644266632773709
1.266557412003231,10.249709797127238
1.2866091428576494,9.80254538339457
1.3066608737120675,10.056815344144518
1.3267126045664859,9.688562297541145
1.346764335420904,10.784553507670232
1.3668160662753224,10.223406008084138
1.3868677971297405,10.25847772680827
1.4069195279841589,10.056815344144518
1.4269712588385768,10.328621164256532
1.4470229896929951,10.328621164256532
1.4670747205474133,10.460140109472022
1.4871264514018316,10.468908039153055
1.5071781822562498,10.162030500316911
1.5272299131106681,10.302317375213434
1.5472816439650863,10.240941867446205
1.5673333748195046,10.276013586170336
1.5873851056739228,9.785009524032503
1.6074368365283411,9.653490578817014
1.627488567382759,10.100654992549682
1.6475402982371774,10.240941867446205
1.6675920290915955,10.337389093937565
1.687643759946014,11.319397218213227
1.707695490800432,12.090975030144106
1.7277472216548504,12.617050811006068
1.7477989525092685,12.406620498661283
1.767850683363687,11.608738897687306
1.787902414218105,11.29309342917013
1.8079541450725232,10.600426984368546
1.8280058759269413,10.51274768755822
1.8480576067813597,10.67933835149784
1.8681093376357778,10.539051476601317
1.8881610684901962,10.503979757877186
1.9082127993446145,10.144494640954845
1.9282645301990327,10.398764601704794
1.948316261053451,10.249709797127238
1.9683679919078692,9.96913604733419
1.9884197227622873,9.995439836377289
2.0084714536167056,10.109422922230713
2.028523184471124,10.661802492135775
2.0485749153255424,10.45137217979099
2.0686266461799607,10.153262570635878
2.0886783770343786,9.898992609885928
2.1087301078887966,9.925296398929028
2.1287818387432154,9.574579211687718
2.1488335695976333,9.600883000730818
2.1688853004520516,10.284781515851368
2.1889370313064695,9.434292336791195
2.2089887621608884,9.434292336791195
2.2290404930153063,9.469364055515326
2.2490922238697246,10.083119133187616
2.2691439547241425,9.925296398929028
2.289195685578561,9.942832258291093
2.3092474164329793,9.54827542264462
2.329299147287397,10.2935494455324
2.3493508781418155,9.60965093041185
2.369402608996234,9.846385031799732
2.3894543398506523,9.600883000730818
2.40950607070507,9.294005461894672
2.4295578015594885,9.51320370392049
2.449609532413907,8.952056204334397
2.469661263268325,8.960824134015429
2.489712994122743,9.171254446360214
2.509764724977161,8.916984485610266
2.52981645583158,8.645178665498252
2.549868186685998,8.408444564110368
2.569919917540416,8.803001399756841
2.5899716483948345,8.680250384222383
2.610023379249253,8.855608977843037
2.630075110103671,8.627642806136187
2.6501268409580887,8.224318040808681
2.6701785718125075,8.364604915705204
2.6902303026669254,7.680706400584653
2.710282033521344,7.873600853567373
2.7303337643757617,7.698242259946719
2.7503854952301805,8.162942533041452
2.7704372260845984,7.724546048989817
2.7904889569390168,8.092799095593191
2.8105406877934347,7.7771536270760135
2.830592418647853,7.049415463550298
2.8506441495022714,7.54041952568813
2.8706958803566893,7.54041952568813
2.8907476112111077,7.759617767713948
2.910799342065526,7.584259174093294
2.9308510729199444,8.084031165912158
2.9509028037743623,7.742081908351882
2.9709545346287807,7.908672572291504
2.991006265483199,7.812225345800144
3.011057996337617,7.785921556757046
3.0311097271920353,7.145862690041659
3.0511614580464532,6.768841713757252
3.071213188900872,6.646090698222793
3.09126491975529,6.400588667153878
3.1113166506097083,6.260301792257355
3.131368381464126,6.453196245240075
3.151420112318545,6.27783765161942
3.171471843172963,6.453196245240075
3.1915235740273813,6.330445229705616
3.2115753048817997,5.76052980043849
3.2316270357362176,5.935888394059145
3.251678766590636,5.401044683516149
3.271730497445054,5.865744956610882
3.2917822282994726,5.681618433309196
3.3118339591538906,5.672850503628163
3.331885690008309,5.462420191283378
3.351937420862727,5.111703004042069
3.3719891517171456,4.971416129145546
3.3920408825715636,4.769753746481794
3.4120926134259815,5.225686089895495
3.4321443442804,5.024023707231742
3.452196075134818,4.7171461683955975
3.4722478059892365,4.962648199464514
3.4922995368436545,4.997719918188644
3.512351267698073,4.664538590309402
3.532402998552491,4.445340348283584
3.5524547294069095,4.638234801266304
3.5725064602613275,4.129694879766406
3.5925581911157454,4.3138214030680935
3.612609921970164,4.033247653275047
3.632661652824582,4.191070387533635
3.6527133836790004,4.30505347338706
3.6727651145334184,3.971872145507817
3.692816845387837,4.015711793912981
3.712868576242255,3.9455683564647193
3.7329203070966734,3.9192645674216213
3.7529720379510914,3.770209762844065
3.7730237688055097,3.4194925756027565
3.793075499659928,3.875424919016458
3.813127230514346,3.46333222400792
3.833178961368765,3.200294333576939
3.8532306922231827,3.173990544533841
3.873282423077601,2.8758809353787287
3.893334153932019,3.0512395289993828
3.913385884786438,3.1301508961286775
3.9334376156408557,2.446252381008126
3.9534893464952736,2.8145054276114996
3.973541077349692,2.858345076016663
3.9935928082041103,2.858345076016663
4.013644539058529,2.6391468339908455
4.033696269912947,2.7355940604822053
4.0537480007673645,2.446252381008126
4.073799731621784,2.533931677818453
4.093851462476201,2.332269295154701
4.11390319333062,2.4550203106891586
4.133954924185037,2.235822068663341
4.154006655039455,2.174446560896112
4.174058385893874,2.060463475042687
4.194110116748292,2.0955351937668176
4.2141618476027105,1.937712459508229
4.234213578457128,2.0166238266375234
4.254265309311547,2.0692314047237192
4.274317040165966,2.0429276156806213
4.294368771020383,1.937712459508229
4.314420501874801,1.9640162485513268
4.334472232729219,1.6396028503531166
4.354523963583638,1.937712459508229
4.3745756944380565,1.508083905137626
4.394627425292474,1.508083905137626
4.414679156146892,1.6746745690772475
4.434730887001312,1.5256197644996914
4.454782617855729,2.0078558969564906
4.474834348710147,1.8061935142927381
4.494886079564566,1.9201766001461633
4.514937810418983,1.990320037594425
4.5349895412734025,1.7448180065255092
4.55504127212782,1.7711217955686074
4.575093002982238,1.5869952722669205
4.595144733836657,1.5256197644996914
4.615196464691075,1.5256197644996914
4.635248195545493,1.1661346475773504
4.655299926399912,1.3677970302411027
4.675351657254329,1.2801177334307756
4.695403388108748,1.122294999172187
4.715455118963166,1.236278085025612
4.735506849817584,1.0959912101290887
4.755558580672003,1.4817801160945279
4.77561031152642,0.9995439836377289
4.795662042380839,0.9907760539566962
4.815713773235258,1.2275101553445793
4.835765504089675,1.0696874210859906
4.855817234944094,1.025847772680827
4.875868965798511,0.9907760539566962
4.89592069665293,0.8943288274653364
4.915972427507349,1.0346157023618596
4.936024158361766,1.1398308585342523
4.9560758892161845,1.113527069491154
4.976127620070604,0.9469364055515326
4.996179350925021,0.964472264913598
5.0162310817794395,0.9995439836377289
5.036282812633857,0.8592571087412055
5.056334543488275,0.8680250384222382
5.076386274342695,0.9995439836377289
5.096438005197112,0.8943288274653364
5.1164897360515305,0.8943288274653364
5.136541466905949,1.0346157023618596
5.156593197760367,0.7452740228877803
5.1766449286147855,0.9381684758704999
5.196696659469204,0.8592571087412055
5.216748390323621,0.8504891790601729
5.236800121178041,0.6751305854395186
5.256851852032458,0.8417212493791401
5.276903582886876,0.7628098822498457
5.296955313741295,0.7715778119308785
5.317007044595712,0.9381684758704999
5.3370587754501315,0.9469364055515326
5.35711050630455,1.1398308585342523
5.377162237158967,1.3064215224738738
5.397213968013386,1.2713498037497428
5.417265698867803,1.3502611708790373
5.437317429722222,1.297653592792841
5.457369160576641,1.1836705069394158
5.477420891431058,1.0959912101290887
5.497472622285477,0.8504891790601729
5.517524353139896,0.7452740228877803
5.537576083994313,0.6400588667153878
5.557627814848732,0.7365060932067476
5.577679545703149,0.5874512886291915
5.597731276557568,0.5786833589481588
5.617783007411987,0.7102023041636495
5.637834738266404,0.7628098822498457
5.657886469120823,0.7102023041636495
5.677938199975241,0.6838985151205513
5.697989930829659,0.7715778119308785
5.718041661684078,0.7628098822498457
5.738093392538495,0.5611474995860934
5.7581451233929135,0.692666444801584
5.778196854247333,0.5699154292671261
5.79824858510175,0.7014343744826168
5.818300315956169,0.604987147991257
5.838352046810587,0.7189702338446822
5.858403777665004,0.7014343744826168
5.878455508519424,0.7628098822498457
5.898507239373842,0.7365060932067476
5.9185589702282595,0.7189702338446822
5.938610701082678,0.6575947260774532
5.958662431937096,0.7978816009739765
5.978714162791515,0.6400588667153878
5.998765893645933,0.6400588667153878
6.01881762450035,0.6751305854395186
6.038869355354769,0.5260757808619626
6.058921086209188,0.5260757808619626
6.0789728170636055,0.6312909370343551
6.099024547918024,0.5348437105429953
6.119076278772441,0.6838985151205513
6.139128009626861,0.6838985151205513
6.159179740481279,0.5173078511809298
6.179231471335696,0.6137550776722897
6.199283202190115,0.7803457416119112
6.219334933044533,0.8592571087412055
6.2393866638989515,1.0521515617239252
6.25943839475337,1.3151894521549063
6.279490125607787,1.4028687489652336
6.299541856462206,2.1218389828099156
6.319593587316625,2.29719757643057
6.339645318171042,2.8846488650597615
6.359697049025461,3.437028434964822
6.379748779879879,3.46333222400792
6.399800510734297,3.971872145507817
6.419852241588716,3.4545642943268877
6.439903972443134,3.04247159931835
6.459955703297552,2.3410372248357336
6.48000743415197,1.7097462878013783
6.500059165006388,1.209974295982514
6.520110895860807,0.754041952568813
6.540162626715225,0.7014343744826168
6.5602143575696426,0.482236132456799
6.580266088424061,0.5173078511809298
6.60031781927848,0.43839648405163545
6.620369550132898,0.42962855437060277
6.640421280987316,0.4471644137326682
6.6604730118417335,0.5260757808619626
6.680524742696153,0.5085399214998971
6.700576473550571,0.5786833589481588
6.7206282044049885,0.43839648405163545
6.740679935259407,0.543611640224028
6.760731666113825,0.543611640224028
6.780783396968244,0.3770209762844065
6.800835127822662,0.5260757808619626
6.8208868586770794,0.40332476532750466
6.840938589531498,0.5260757808619626
6.860990320385917,0.482236132456799
6.8810420512403345,0.5523795699050607
6.901093782094753,0.49977199181886445
6.921145512949171,0.5786833589481588
6.941197243803589,0.5962192183102243
6.961248974658008,0.6400588667153878
6.981300705512425,0.7978816009739765
7.001352436366844,0.7978816009739765
7.021404167221262,0.8066495306550093
7.0414558980756805,0.9732401945946307
7.061507628930099,1.148598788215285
7.081559359784517,1.0609194914049578
7.101611090638935,0.9995439836377289
7.121662821493353,0.666362655758486
7.141714552347772,0.6838985151205513
7.16176628320219,0.7014343744826168
7.181818014056608,0.6137550776722897
7.201869744911026,0.7189702338446822
7.221921475765445,0.6137550776722897
7.241973206619863,0.38578890596543924
7.262024937474281,0.482236132456799
7.282076668328699,0.4647002730947336
7.302128399183117,0.5260757808619626
7.322180130037536,0.42962855437060277
7.342231860891954,0.45593234341370087
7.362283591746372,0.4734682027757663
7.38233532260079,0.5260757808619626
7.402387053455209,0.5523795699050607
7.422438784309627,0.6400588667153878
7.442490515164045,0.6575947260774532
7.462542246018463,0.692666444801584
7.482593976872881,0.692666444801584
7.5026457077273,0.815417460336042
7.522697438581718,0.5786833589481588
7.542749169436136,0.754041952568813
7.562800900290554,0.7014343744826168
7.582852631144973,0.6488267963964205
7.602904361999391,0.6225230073533223
7.622956092853809,0.6488267963964205
7.643007823708227,0.8504891790601729
7.663059554562645,0.8767929681032709
7.6831112854170645,0.9206326165084345
7.703163016271482,1.0521515617239252
7.7232147471259,0.9995439836377289
7.743266477980318,1.0959912101290887
7.763318208834737,1.508083905137626
7.783369939689155,1.543155623861757
7.803421670543573,1.8763369517409998
7.823473401397991,2.867113005697696
7.84352513225241,4.655770660628368
7.863576863106828,9.32030925093777
7.883628593961246,15.992703738203662
7.903680324815664,30.687753883614484
7.923732055670082,54.492682967618286
7.943783786524501,87.21459653723237
7.963835517378919,133.57064076085229
7.983887248233337,181.07528377268753
8.003938979087756,226.7211256921438
8.023990709942174,259.0484824261114
8.044042440796591,269.7979642150575
8.064094171651009,253.45454328961253
8.084145902505428,217.1816181991802
8.104197633359847,169.88740549968978
8.124249364214265,120.56780104388079
8.144301095068682,79.94598283165625
8.164352825923102,45.88257602084417
8.184404556777519,25.891696348089592
8.204456287631938,13.800721317945484
8.224508018486356,6.540875542050402
8.244559749340775,3.4019567162406914
8.264611480195192,1.6746745690772475
8.28466321104961,1.3064215224738738
8.30471494190403,1.122294999172187
8.324766672758447,0.9820081242756634
8.344818403612866,1.0083119133187617
8.364870134467283,0.9381684758704999
8.3849218653217,0.9118646868274017
8.40497359617612,0.9557043352325654
8.425025327030538,0.8504891790601729
8.445077057884957,0.9732401945946307
8.465128788739376,0.9381684758704999
8.485180519593792,1.1310629288532195
8.505232250448211,1.0696874210859906
8.52528398130263,1.0170798429997943
8.545335712157048,1.2450460147066447
8.565387443011467,1.2801177334307756
8.585439173865883,1.2450460147066447
8.605490904720302,1.420404608327299
8.625542635574721,1.6571387097151822
8.645594366429139,1.9114086704651307
8.665646097283558,2.0166238266375234
8.685697828137974,2.0341596859995885
8.705749558992393,2.9723281618700885
8.725801289846812,3.7614418331630324
8.74585302070123,5.278293667981691
8.765904751555649,8.18924632208455
8.785956482410068,12.836249053031887
8.806008213264484,19.71030592296153
8.826059944118903,27.066598925347975
8.84611167497332,35.65917001276003
8.86616340582774,44.5235469202841
8.886215136682159,50.012270900610574
8.906266867536575,50.97674316552418
8.926318598390994,48.784760745266
8.946370329245411,42.6998175466293
8.96642206009983,34.31767677156203
8.98647379095425,25.321780918822466
9.006525521808667,17.47448385429819
9.026577252663085,10.51274768755822
9.046628983517502,6.882824799610677
9.066680714371921,3.7263701144389016
9.08673244522634,2.165678631215079
9.106784176080758,1.2713498037497428
9.126835906935176,0.6838985151205513
9.146887637789593,0.5611474995860934
9.166939368644012,0.4910040621378317
9.186991099498432,0.38578890596543924
9.207042830352849,0.42086062468957003
9.227094561207267,0.4471644137326682
9.247146292061686,0.45593234341370087
9.267198022916103,0.3594851169223411
9.287249753770523,0.4734682027757663
9.30730148462494,0.482236132456799
9.32735321547936,0.42086062468957003
9.347404946333777,0.482236132456799
9.367456677188194,0.4910040621378317
9.387508408042613,0.5260757808619626
9.407560138897031,0.40332476532750466
9.42761186975145,0.41209269500853735
9.447663600605868,0.40332476532750466
9.467715331460285,0.3770209762844065
9.487767062314704,0.41209269500853735
9.507818793169124,0.4471644137326682
9.527870524023541,0.4910040621378317
9.547922254877959,0.5260757808619626
9.567973985732376,0.41209269500853735
9.588025716586795,0.41209269500853735
9.608077447441215,0.4471644137326682
9.628129178295632,0.45593234341370087
9.648180909150051,0.4647002730947336
9.668232640004467,0.42962855437060277
9.688284370858886,0.5173078511809298
9.708336101713305,0.5699154292671261
9.728387832567723,0.482236132456799
9.748439563422142,0.45593234341370087
9.768491294276558,0.3507171872413084
9.788543025130977,0.3507171872413084
9.808594755985396,0.40332476532750466
9.828646486839814,0.43839648405163545
9.848698217694233,0.5523795699050607
9.868749948548652,0.32441339819821025
9.888801679403068,0.482236132456799
9.908853410257487,0.42086062468957003
9.928905141111905,0.41209269500853735
9.948956871966324,0.3068775388361448
9.969008602820743,0.3770209762844065
9.989060333675159,0.271805820112014
10.009112064529578,0.32441339819821025
10.029163795383996,0.333181327879243
10.049215526238415,0.32441339819821025
10.069267257092834,0.3068775388361448
10.08931898794725,0.3507171872413084
10.109370718801669,0.3507171872413084
10.129422449656087,0.38578890596543924
10.149474180510506,0.40332476532750466
10.169525911364925,0.29810960915511214
10.189577642219342,0.31564546851717756
10.20962937307376,0.3945568356464719
10.22968110392818,0.34194925756027567
10.249732834782597,0.32441339819821025
10.269784565637016,0.3068775388361448
10.289836296491433,0.3507171872413084
10.30988802734585,0.3594851169223411
10.32993975820027,0.38578890596543924
10.349991489054688,0.31564546851717756
10.370043219909107,0.32441339819821025
10.390094950763524,0.3594851169223411
10.410146681617944,0.3068775388361448
10.430198412472361,0.3507171872413084
10.450250143326778,0.5523795699050607
10.470301874181198,0.43839648405163545
10.490353605035615,0.38578890596543924
10.510405335890034,0.4734682027757663
10.530457066744452,0.4734682027757663
10.55050879759887,0.5786833589481588
10.570560528453289,0.3945568356464719
10.590612259307708,0.43839648405163545
10.610663990162125,0.3945568356464719
10.630715721016543,0.4647002730947336
10.65076745187096,0.4910040621378317
10.67081918272538,0.3945568356464719
10.690870913579799,0.5260757808619626
10.710922644434216,0.2805737497930467
10.730974375288636,0.3945568356464719
10.751026106143051,0.45593234341370087
10.77107783699747,0.42086062468957003
10.79112956785189,0.4647002730947336
10.811181298706307,0.41209269500853735
10.831233029560726,0.40332476532750466
10.851284760415142,0.43839648405163545
10.871336491269561,0.34194925756027567
10.89138822212398,0.5962192183102243
10.911439952978398,0.2805737497930467
