Energy (keV),Intensity (cps),slope,offset,liveTime
-0.017217458956643884,0.0,20.05594293969134,-17.217458956643885,49.17122268676758
0.002838483983047457,0.0
0.022894426922738798,0.0
0.042950369862430136,0.0
0.06300631280212149,0.0
0.08306225574181282,0.0
0.10311819868150417,0.0
0.12317414162119551,0.0
0.14323008456088684,0.0
0.16328602750057816,0.0
0.1833419704402695,0.0
0.20339791337996088,0.0
0.2234538563196522,0.0
0.24350979925934355,0.0
0.2635657421990349,0.0
0.2836216851387262,0.0
0.3036776280784176,0.0
0.32373357101810896,0.0
0.3437895139578002,0.0
0.3638454568974916,0.0
0.3839013998371829,0.0
0.4039573427768743,0.0
0.42401328571656566,0.0
0.4440692286562569,0.0
0.4641251715959483,0.0
0.48418111453563967,0.0
0.504237057475331,0.061011295552089805
0.5242930004150224,0.12202259110417961
0.5443489433547137,0.22370808369099596
0.5644048862944051,0.3660677733125388
0.5844608292340963,0.7524726451424409
0.6045167721737876,0.7524726451424409
0.624572715113479,1.4235968962154288
0.6446286580531704,1.8100017680453309
0.6646846009928618,2.5421373146704087
0.684740543932553,2.826856693913494
0.7047964868722444,3.5996664375732985
0.7248524298119358,3.7623632257122046
0.7449083727516271,4.189442294576833
0.7649643156913185,4.921577841201911
0.7850202586310097,4.982589136754001
0.805076201570701,6.16214085076107
0.8251321445103924,7.117984481077144
0.8451880874500838,7.260344170698687
0.8652440303897752,8.683941066914116
0.8852999733294665,12.08023651931378
0.9053559162691578,15.822262646508623
0.9254118592088492,20.96754857140153
0.9454678021485405,22.452156763169047
0.9655237450882319,21.455638935818246
0.9855796880279232,17.00181436051569
1.0056356309676144,12.14124781486587
1.0256915739073058,11.978551026726965
1.0457475168469974,13.341136627390304
1.0658034597866886,15.5578803657829
1.0858594027263797,17.449230527897683
1.1059153456660713,15.74091425243917
1.1259712886057625,13.585181809598662
1.146027231545454,13.930912484393838
1.1660831744851452,19.015187113734655
1.1861391174248366,29.305758963520468
1.206195060364528,47.466787939525865
1.2262510033042193,66.64467184139943
1.2463069462439107,72.90849818474732
1.266362889183602,63.06534250234349
1.2864188321232932,41.93509714280306
1.3064747750629846,26.62126195922852
1.326530718002676,17.591590217519226
1.3465866609423673,14.947767410262003
1.3666426038820587,19.076198409286746
1.3866985468217499,44.17217797971302
1.4067544897614415,119.80584736578702
1.4268104327011326,286.0006164496796
1.4468663756408242,525.7343337723578
1.4669223185805154,739.3552165987417
1.4869782615202065,796.1363956592198
1.507034204459898,631.995673525581
1.5270901473995893,397.9156695907297
1.5471460903392809,205.54705471499054
1.567202033278972,103.3734717637575
1.5872579762186634,59.42500186773547
1.6073139191583548,56.516796779752525
1.6273698620980461,116.85696808076933
1.6474258050377375,372.6163190351298
1.6674817479774289,1017.8311065969968
1.6875376909171202,2224.512510026229
1.7075936338568114,3669.5243709804413
1.7276495767965028,4626.933957882352
1.7477055197361941,4452.380641307823
1.7677614626758855,3309.8017724053198
1.787817405615577,1934.0377319027293
1.8078733485552683,967.456113569488
1.8279292914949594,494.21183107044476
1.847985234434651,286.32601002595743
1.8680411773743422,188.21984677819705
1.8880971203140335,152.5892501757766
1.908153063253725,149.1522805263422
1.928209006193416,172.19421314651478
1.9482649491331077,175.93623927370962
1.9683208920727988,152.54857597874187
1.9883768350124904,117.4874181348076
2.008432777952182,78.50120027702222
2.0284887208918727,55.866009627196895
2.0485446638315645,42.50453590128923
2.0686006067712555,34.16632550917029
2.088656549710947,31.68519949005197
2.1087124926506386,30.078568707180274
2.1287684355903296,32.43767213519441
2.148824378530021,34.308685198791835
2.1688803214697123,35.04082074541691
2.1889362644094037,39.63700501034101
2.208992207349095,48.72768804760239
2.2290481502887864,61.519723015023885
2.249104093228478,84.80570081740483
2.269160036168169,107.42055436871279
2.28921597910786,127.6763044920066
2.309271922047552,136.07552617967764
2.3293278649872433,123.6292218870513
2.3493838079269342,105.63088969918482
2.3694397508666256,89.68660446157202
2.389495693806317,77.03692918377206
2.409551636746009,67.70220096430232
2.4296075796856997,65.58714271849654
2.449663522625391,57.89971947893322
2.4697194655650825,57.96073077448531
2.4897754085047734,59.87241803511746
2.5098313514444652,63.06534250234349
2.5298872943841566,67.70220096430232
2.549943237323848,80.27052784803281
2.569999180263539,113.84707750019957
2.5900551232032303,173.63814714124757
2.610111066142922,282.8687032780057
2.6301670090826135,467.7736029978725
2.6502229520223044,704.5177668384983
2.6702788949619958,939.6756369947698
2.690334837901687,1078.3136375876352
2.7103907808413785,1029.6062866385503
2.73044672378107,840.3492478359676
2.7505026667207613,642.8760212323702
2.7705586096604526,527.2189419641254
2.7906145526001436,542.3294061625263
2.8106704955398354,621.3390339024826
2.8307264384795268,687.7396605616736
2.850782381419218,682.4316778486418
2.870838324358909,636.4901722979182
2.8908942672986004,607.9165488810228
2.9109502102382923,640.8016371835992
2.931006153177983,711.3713690388497
2.9510620961176746,744.6428622132561
2.971118039057366,697.3794452589038
2.9911739819970573,573.5265152881615
3.0112299249367487,405.603092830293
3.03128586787644,273.55431215705335
3.0513418108161314,172.47893252575787
3.0713977537558224,121.77854592197124
3.0914536966955137,100.38391828170509
3.1115096396352055,102.76335880823659
3.131565582574897,111.91505314105007
3.151621525514588,128.48978843270112
3.1716774684542792,138.17024732696603
3.1917334113939706,141.6885653704699
3.2117893543336624,148.94890954116858
3.2318452972733533,158.75139102653768
3.2519012402130447,200.36109459306292
3.271957183152736,255.71867675732574
3.2920131260924275,312.96760908370334
3.312069069032119,345.4256183174151
3.33212501197181,320.5940210277146
3.3521809549115016,262.38924507102087
3.3722368978511925,194.2803021363713
3.3922928407908843,136.0348519826429
3.4123487837305757,101.76684098088579
3.432404726670267,86.22929771362026
3.452460669609958,80.49423593172382
3.4725166125496494,88.69008663422122
3.492572555489341,96.25548728268035
3.512628498429032,115.20966310086291
3.5326844413687235,173.69915843679968
3.552740384308415,331.08796386267403
3.5727963272481063,744.6225251147387
3.5928522701877976,1688.8536721773978
3.612908213127489,3491.9204896283077
3.6329641560671804,6213.5530358129645
3.6530200990068717,9436.271352366935
3.6730760419465627,12041.433335342652
3.6931319848862545,12857.317053662231
3.713187927825946,11604.104368825272
3.733243870765637,8758.72057816246
3.753299813705328,5561.830376725541
3.7733557566450195,3017.8423860900525
3.7934116995847114,1410.174411193969
3.8134676425244023,608.8317183143041
3.8335235854640937,286.87511168592624
3.853579528403785,191.57546803356198
3.873635471343476,192.02288420094396
3.893691414283168,263.46711129244113
3.913747357222859,403.54904588003933
3.9338033001625505,671.3886333537135
3.9538592431022415,1055.902155021501
3.973915186041933,1496.6884282868323
3.9939711289816247,1856.0652961871588
4.014027071921316,1985.9583444175578
4.034083014861007,1845.164611381852
4.054138957800698,1455.3227699025153
4.074194900740389,1011.1808753818191
4.094250843680081,609.604528057964
4.114306786619773,353.19438995104787
4.134362729559464,201.11356723820535
4.154418672499155,133.8181082442503
4.174474615438847,108.15268991533786
4.1945305583785375,98.7162762032813
4.214586501318229,94.36413712056556
4.234642444257921,93.91672095318357
4.254698387197612,92.47278695845078
4.274754330137304,90.43907710671445
4.294810273076994,93.7336870665273
4.314866216016686,92.59480954955495
4.334922158956378,94.9539129775691
4.3549781018960685,99.36706335583693
4.37503404483576,113.70471781057803
4.395089987775451,140.81407013422327
4.415145930715143,186.75557568494688
4.435201873654834,275.46599941768545
4.455257816594525,376.78542423118927
4.475313759534217,487.3175546730586
4.495369702473908,561.405604571813
4.5154256454135995,580.0953981092698
4.535481588353291,528.378156579615
4.555537531292982,437.14593263072345
4.575593474232673,347.62202495729036
4.595649417172364,263.2434032087501
4.615705360112056,217.68830252985643
4.635761303051748,192.42962617129123
4.655817245991439,180.51208644011638
4.6758731889311305,177.66489264768552
4.695929131870821,166.70319654682672
4.715985074810512,157.36846832735696
4.736041017750204,149.7623934818631
4.756096960689895,148.03374010788724
4.776152903629587,141.60721697640042
4.796208846569278,148.03374010788724
4.81626478950897,151.45037265880427
4.8363207324486615,162.0053267893158
4.856376675388352,181.91534623781442
4.876432618328043,201.52030920855262
4.896488561267734,220.29145114007892
4.916544504207426,244.3299015876023
4.936600447147118,254.47811374776657
4.956656390086809,244.4519241787065
4.976712333026501,229.76853904917022
4.9967682759661916,209.51278892587638
5.0168242189058825,188.64692584706168
5.036880161845574,171.2587066147161
5.056936104785265,167.1506127142087
5.076992047724957,161.04948315899972
5.097047990664648,163.40858658701387
5.11710393360434,165.38128514319808
5.137159876544032,165.1169028624724
5.157215819483722,165.66600452244117
5.1772717624234135,165.78802711354535
5.197327705363104,169.83510971850066
5.217383648302796,168.4318499208026
5.237439591242488,170.38421137846947
5.257495534182179,171.92983086578906
5.277551477121871,173.63814714124757
5.297607420061561,184.82355132579738
5.317663363001253,202.65918672552496
5.3377193059409445,218.4204380764815
5.357775248880635,250.55305373391545
5.377831191820327,276.07611237320634
5.397887134760018,302.2906323620876
5.41794307769971,310.9542363304844
5.437999020639402,305.0768148589664
5.458054963579092,273.9610541274006
5.478110906518784,245.34675651347047
5.498166849458475,218.23740418982524
5.518222792398166,194.03625695416295
5.538278735337858,173.9025294219733
5.558334678277549,167.9844337534206
5.578390621217241,162.73746233594088
5.598446564156931,159.38184108057592
5.618502507096623,158.24296356360358
5.638558450036315,156.3109392044541
5.6586143929760055,154.90767940675602
5.678670335915697,156.90071506145762
5.698726278855388,155.21273588451646
5.71878222179508,157.28711993328753
5.738838164734771,163.6526317692222
5.758894107674462,167.23196110827814
5.778950050614154,184.3761351584154
5.799005993553845,212.15661173313362
5.8190619364935365,252.3020442064087
5.839117879433228,300.1959112147992
5.859173822372919,351.87247854741923
5.87922976531261,390.4519544348574
5.899285708252301,397.22420824113937
5.919341651191993,380.69014714652303
5.939397594131685,343.18853748050515
5.959453537071376,301.6805194065667
5.9795094800110675,245.1637226268142
5.9995654229507585,210.02121638881047
6.01962136589045,181.2645590852588
6.039677308830141,169.16398546742766
6.059733251769832,165.13723996098975
6.079789194709524,165.1575770595071
6.099845137649215,164.36443021732993
6.119901080588907,166.25578037944473
6.1399570235285985,173.2924164664524
6.160012966468289,181.18321069118934
6.18006890940798,196.72075395845488
6.200124852347671,229.40247127585766
6.220180795287363,313.80143012291524
6.240236738227055,506.06835950606757
6.260292681166746,916.0439285175937
6.280348624106438,1705.1640251883232
6.300404567046129,3026.0178996940326
6.3204605099858195,4901.281416881582
6.340516452925511,7215.216149088657
6.360572395865202,9551.786071945558
6.380628338804894,11298.966542670754
6.400684281744585,11924.922097936678
6.420740224684277,11177.615075817646
6.440796167623969,9408.958629058116
6.460852110563659,7071.73791904866
6.4809080535033505,4767.503982834367
6.500963996443042,2927.9727477418246
6.521019939382733,1641.5495810260109
6.541075882322425,881.125130363281
6.561131825262116,492.34081800684737
6.581187768201808,300.68400157921593
6.6012437111415,223.8504433806175
6.62129965408119,194.01591985564556
6.6413555970208815,183.98973028658548
6.6614115399605724,177.84792653434178
6.681467482900264,176.99376839661252
6.701523425839956,175.1227553330151
6.721579368779647,172.60095511686205
6.741635311719339,173.86185522493858
6.761691254659029,176.30230704702217
6.781747197598721,174.7363504611852
6.8018031405384125,182.56613339037006
6.821859083478103,186.22681112349545
6.841915026417795,199.1612057805385
6.861970969357486,212.0956004375815
6.882026912297178,239.69304312564347
6.902082855236869,292.79320735447897
6.92213879817656,393.6855530991181
6.942194741116252,540.743112478172
6.962250684055943,772.8300807583215
6.982306626995634,1070.3211578703115
7.002362569935326,1404.7647429883505
7.022418512875017,1712.8921226249213
7.042474455814709,1884.577908308502
7.062530398754399,1911.1381589721784
7.082586341694091,1750.5157548820432
7.102642284633783,1466.6912079737215
7.122698227573474,1110.710635525795
7.142754170513165,774.8637906100579
7.162810113452856,513.206681085662
7.182866056392548,324.6817778297046
7.202921999332239,214.35301837300884
7.22297794227193,154.43992614085667
7.243033885211622,128.9372046000831
7.263089828151313,118.97202632657512
7.283145771091005,120.94472488275936
7.303201714030696,132.9436130080037
7.323257656970387,143.66126392665413
7.343313599910078,156.33127630297145
7.363369542849769,170.4248855755042
7.383425485789461,178.2750056032064
7.403481428729153,176.01758766777908
7.423537371668844,168.9199402852193
7.443593314608536,161.41555093231227
7.4636492575482265,154.21621805716566
7.483705200487917,139.81755230687247
7.503761143427609,130.38113859481592
7.5238170863673,117.73146331701597
7.543873029306992,112.2811209143626
7.563928972246683,110.288085259661
7.583984915186375,106.32235104877516
7.604040858126067,102.78369590675396
7.6240968010657575,108.03066732423368
7.644152744005448,108.60010608271985
7.664208686945139,111.22359179145971
7.684264629884831,112.03707573215425
7.704320572824523,113.98943718982112
7.724376515764214,112.68786288470987
7.744432458703906,109.71864650117483
7.764488401643597,104.57336057628193
7.784544344583288,103.10908948303177
7.804600287522979,100.58728926687873
7.82465623046267,97.76043257296523
7.844712173402362,96.1741388886109
7.864768116342053,95.56402593309
7.884824059281745,98.04515195220831
7.904880002221437,96.09279049454145
7.924935945161127,94.77087909091283
7.944991888100819,91.49660622961734
7.9650478310405095,96.05211629750671
7.985103773980201,96.21481308564562
8.005159716919893,100.38391828170509
8.025215659859583,104.24796700000411
8.045271602799275,108.49842059013304
8.065327545738967,115.6570792682449
8.085383488678659,121.33112975458926
8.10543943161835,131.01158864885417
8.12549537455804,132.9436130080037
8.145551317497732,132.35383715100014
8.165607260437422,133.1063097961426
8.185663203377114,125.459560753614
8.205719146316806,120.27360063168636
8.225775089256498,110.83718691962981
8.24583103219619,105.00043964514656
8.26588697513588,96.68256635154498
8.285942918075573,90.134020628954
8.305998861015263,91.06952716075271
8.326054803954953,85.35480247737364
8.346110746894645,80.61625852282799
8.366166689834337,82.62963127604696
8.386222632774029,79.1723245280952
8.406278575713719,76.85389529711578
8.426334518653412,79.1723245280952
8.446390461593102,77.30131146449779
8.466446404532793,75.75569197717817
8.486502347472486,76.0200742579039
8.506558290412176,76.67086141045952
8.526614233351868,76.54883881935534
8.546670176291558,75.47097259793509
8.566726119231252,74.21007248985856
8.586782062170942,74.23040958837593
8.606838005110632,75.99973715938653
8.626893948050325,74.43378057354956
8.646949890990015,73.96602730765021
8.667005833929707,73.86434181506338
8.687061776869399,74.14906119430647
8.70711771980909,73.43726274619875
8.72717366274878,74.61681446020583
8.74722960568847,73.29490305657721
8.767285548628164,74.47445477058429
8.787341491567854,75.95906296235181
8.807397434507546,74.39310637651484
8.827453377447238,68.51568490499685
8.84750932038693,69.67489952048656
8.86756526332662,66.46163795474315
8.887621206266312,64.52961359559364
8.907677149206004,64.8346700733541
8.927733092145694,64.36691680745474
8.947789035085385,64.14320872376375
8.967844978025077,62.41455534978787
8.98790092096477,62.760286024583046
9.00795686390446,62.47556664533996
9.028012806844151,64.4482652015242
9.048068749783843,62.31286985720105
9.068124692723533,64.87534427038882
9.088180635663226,66.15658147698271
9.108236578602916,66.3802895606737
9.128292521542608,65.18040074814927
9.148348464482298,61.88579078833642
9.16840440742199,63.32972478306922
9.188460350361682,57.65567429672487
9.208516293301372,56.862527454547696
9.228572236241066,56.089717710887896
9.248628179180756,55.052525686502364
9.268684122120447,56.13039190792262
9.28874006506014,50.74106080082135
9.30879600799983,51.57488184003325
9.328851950939521,50.76139789933872
9.348907893879211,47.73117022025159
9.368963836818905,48.2802718802204
9.389019779758595,44.86363932930337
9.409075722698287,43.19599725087958
9.429131665637978,39.25060013851111
9.44918760857767,37.37958707491369
9.46924355151736,37.86767743933041
9.489299494457052,36.891496710496966
9.509355437396744,35.34587722317736
9.529411380336434,34.36969649434392
9.549467323276126,32.315649544090235
9.569523266215818,31.42081720932625
9.58957920915551,30.586996170114354
9.6096351520952,31.1157607315658
9.629691095034891,30.66834456418381
9.649747037974583,28.776994402069025
9.669802980914273,27.841487870270313
9.689858923853967,25.807778018533988
9.709914866793657,25.807778018533988
9.729970809733349,24.119798841592836
9.750026752673039,24.790923092665825
9.77008269561273,22.675864846860044
9.790138638552422,22.452156763169047
9.810194581492112,18.73046773449157
9.830250524431806,19.625300069255555
9.850306467371496,18.73046773449157
9.870362410311188,17.79496120269286
9.89041835325088,19.34058069001247
9.91047429619057,20.947211472884167
9.930530239130261,25.848452215568713
9.950586182069951,32.1122785589166
9.970642125009645,43.27734564494904
9.990698067949335,58.36747274483258
10.010754010889027,78.68423416367848
10.030809953828719,96.58088085895815
10.050865896768409,113.15561615060922
10.0709218397081,129.71001434374293
10.090977782647792,136.11620037671236
10.111033725587484,128.0627093638365
10.131089668527174,114.2741565690642
10.151145611466866,100.87200864612181
10.171201554406558,80.392550439137
10.191257497346248,59.54702445883965
10.21131344028594,42.28082781759824
10.231369383225632,29.021039584277382
10.251425326165323,20.21507592625909
10.271481269105013,15.069790001366181
10.291537212044707,14.276643159189014
10.311593154984397,14.052935075498018
10.331649097924087,17.34754503531087
10.35170504086378,19.482940379634012
10.37176098380347,22.452156763169047
10.391816926743163,23.306314900898304
10.411872869682853,24.343506925283833
10.431928812622546,24.50620371342274
10.451984755562236,22.77755033944686
10.472040698501926,20.33709851736327
10.49209664144162,15.61889166133499
10.51215258438131,13.930912484393838
10.532208527321002,11.958213928209602
10.552264470260694,10.39225734237263
10.572320413200385,8.826300756535659
10.592376356140075,8.09416520991058
10.612432299079767,9.721133091299642
10.632488242019459,10.798999312719895
10.65254418495915,13.280125331838214
10.672600127898841,16.167993321303797
10.692656070838533,20.011704941085455
10.712712013778225,22.187774482443324
10.732767956717915,24.567215008974827
10.752823899657608,23.16395521127676
10.772879842597298,22.106426088373873
10.792935785536988,21.699684118026607
10.81299172847668,18.771141931526298
10.833047671416372,18.283051567109577
10.853103614356064,15.069790001366181
10.873159557295754,13.524170514046574
10.893215500235447,11.63282035193179
10.913271443175137,10.860010608271985
10.933327386114827,10.412594440889993
10.953383329054521,10.107537963129545
10.973439271994211,9.538099204643373
10.993495214933903,10.026189569060092
11.013551157873593,9.578773401678099
