Energy (keV),Intensity (cps),slope,offset,liveTime
-0.016753362679535415,0.0,20.051730854418228,-16.753362679535414,114.62108612060547
0.003298368174882814,0.0
0.023350099029301043,0.0
0.043401829883719274,0.0
0.0634535607381375,0.0
0.08350529159255572,0.0
0.10355702244697396,0.0
0.12360875330139219,0.0
0.14366048415581043,0.0
0.16371221501022865,0.0
0.18376394586464687,0.0
0.2038156767190651,0.0
0.2238674075734833,0.0
0.24391913842790156,0.0
0.2639708692823198,0.0
0.28402260013673797,0.0
0.3040743309911562,0.0
0.32412606184557446,0.0
0.34417779269999266,0.0
0.3642295235544109,0.0
0.3842812544088291,0.0
0.40433298526324735,0.0
0.42438471611766554,0.008724398222398537
0.4444364469720838,0.008724398222398537
0.4644881778265021,0.02617319466719561
0.4845399086809203,0.043621991111992685
0.5045916395353385,0.09596838044638391
0.5246433703897568,0.3053539377839488
0.544695101244175,0.5234638933439122
0.5647468320985932,0.8375422293502596
0.5847985629530115,1.151620565356607
0.6048502938074297,1.8059504320364972
0.624902024661848,2.8790514133915175
0.6449537555162661,3.6642472534073858
0.6650054863706844,4.894387402765579
0.6850572172251026,5.086324163658348
0.7051089480795208,6.4386058881301205
0.725160678933939,7.485533674817945
0.7452124097883572,7.825785205491488
0.7652641406427755,8.689500629508943
0.7853158714971937,8.925059381513703
0.805367602351612,9.021027761960088
0.8254193332060301,9.370003690856029
0.8454710640604484,9.195515726408058
0.8655227949148666,9.710255221529572
0.8855745257692849,9.518318460636804
0.9056262566237031,9.736428416196768
0.9256779874781212,9.561940451748796
0.9457297183325396,9.605562442860789
0.9657814491869579,10.635041433103817
0.9858331800413761,9.221688921075254
1.0058849108957943,9.00357896551529
1.0259366417502125,8.855264195734515
1.0459883726046306,9.143169337073667
1.0660401034590488,9.18679132818566
1.086091834313467,9.84112119486555
1.1061435651678853,9.00357896551529
1.1261952960223034,9.029752160182486
1.1462470268767218,9.457247673080014
1.16629875773114,9.082098549516877
1.1863504885855582,8.898886186846507
1.2064022194399764,8.846539797512117
1.2264539502943947,8.846539797512117
1.2465056811488127,8.837815399289719
1.266557412003231,9.239137717520052
1.2866091428576494,8.71567382417614
1.3066608737120675,8.453941877504183
1.3267126045664859,8.305627107723408
1.346764335420904,8.785469009955326
1.3668160662753224,8.331800302390603
1.3868677971297405,9.24786211574245
1.4069195279841589,9.038476558404884
1.4269712588385768,8.279453913056212
1.4470229896929951,9.021027761960088
1.4670747205474133,9.00357896551529
1.4871264514018316,9.404901283745623
1.5071781822562498,8.619705443729755
1.5272299131106681,8.628429841952153
1.5472816439650863,8.58480785084016
1.5673333748195046,8.401595488169791
1.5873851056739228,8.52373706328337
1.6074368365283411,8.863988593956913
1.627488567382759,8.28817831127861
1.6475402982371774,8.680776231286545
1.6675920290915955,9.021027761960088
1.687643759946014,10.32096309709747
1.707695490800432,10.469277866878244
1.7277472216548504,11.141056530002931
1.7477989525092685,11.3329932908957
1.767850683363687,10.530348654435034
1.787902414218105,9.823672398420753
1.8079541450725232,8.925059381513703
1.8280058759269413,8.610981045507357
1.8480576067813597,8.837815399289719
1.8681093376357778,9.160618133518463
1.8881610684901962,9.082098549516877
1.9082127993446145,8.942508177958501
1.9282645301990327,8.672051833064145
1.948316261053451,8.802917806400124
1.9683679919078692,8.872712992179313
1.9884197227622873,8.567359054395364
2.0084714536167056,8.043895161051452
2.028523184471124,8.890161788624109
2.0485749153255424,8.41904428461459
2.0686266461799607,8.628429841952153
2.0886783770343786,8.602256647284957
2.1087301078887966,8.628429841952153
2.1287818387432154,8.846539797512117
2.1488335695976333,8.445217479281784
2.1688853004520516,8.610981045507357
2.1889370313064695,8.244556320166618
2.2089887621608884,8.209658727277024
2.2290404930153063,8.549910257950566
2.2490922238697246,8.279453913056212
2.2691439547241425,8.23583192194422
2.289195685578561,8.549910257950566
2.3092474164329793,8.22710752372182
2.329299147287397,8.65460303661935
2.3493508781418155,7.904304789493075
2.369402608996234,8.218383125499422
2.3894543398506523,8.549910257950566
2.40950607070507,7.9392023823826685
2.4295578015594885,8.070068355718647
2.449609532413907,8.157312337942633
2.469661263268325,7.502982471262742
2.489712994122743,7.590226453486728
2.509764724977161,7.5640532588195315
2.52981645583158,7.703643630377909
2.549868186685998,7.345943303259569
2.569919917540416,7.302321312147575
2.5899716483948345,7.511706869485141
2.610023379249253,7.119108949477206
2.630075110103671,7.27614811748038
2.6501268409580887,7.031864967253221
2.6701785718125075,7.058038161920416
2.6902303026669254,6.778857418803663
2.710282033521344,6.848652604582852
2.7303337643757617,6.935896586806837
2.7503854952301805,6.595645056133294
2.7704372260845984,6.805030613470859
2.7904889569390168,6.281566720126947
2.8105406877934347,6.456054684574918
2.830592418647853,6.787581817026062
2.8506441495022714,6.464779082797316
2.8706958803566893,6.656715843690084
2.8907476112111077,6.3251887112389396
2.910799342065526,6.682889038357279
2.9308510729199444,7.1540065423668
2.9509028037743623,6.682889038357279
2.9709545346287807,6.351361905906135
2.991006265483199,6.098354357456578
3.011057996337617,5.854071207229419
3.0311097271920353,6.211771534347759
3.0511614580464532,5.627236853447057
3.071213188900872,5.766827225005433
3.09126491975529,5.548717269445469
3.1113166506097083,5.539992871223071
3.131368381464126,5.932590791231005
3.151420112318545,4.999080181434362
3.171471843172963,5.1997413405495285
3.1915235740273813,5.4353000925542885
3.2115753048817997,5.12994615477034
3.2316270357362176,4.885663004543181
3.251678766590636,4.83331661520879
3.271730497445054,4.807143420541594
3.2917822282994726,4.580309066759232
3.3118339591538906,4.344750314754472
3.331885690008309,4.859489809875985
3.351937420862727,4.397096704088863
3.3719891517171456,4.423269898756058
3.3920408825715636,4.5715846685368335
3.4120926134259815,4.344750314754472
3.4321443442804,4.484340686312848
3.452196075134818,4.676277447205616
3.4722478059892365,4.126640359194508
3.4922995368436545,3.9172548018569433
3.512351267698073,3.428688501402625
3.532402998552491,3.9608767929689357
3.5524547294069095,3.7863888285209653
3.5725064602613275,3.603176465850596
3.5925581911157454,3.4548616960698206
3.612609921970164,3.681696049852183
3.632661652824582,3.4984836871818135
3.6527133836790004,3.3850665102906325
3.6727651145334184,3.2193029440650602
3.692816845387837,3.3676177138458354
3.712868576242255,3.2890981298442483
3.7329203070966734,3.2367517405098574
3.7529720379510914,3.166956554730669
3.7730237688055097,2.8441538205019232
3.793075499659928,2.9750197938379013
3.813127230514346,2.8179806258347275
3.833178961368765,2.7045634489435466
3.8532306922231827,2.8179806258347275
3.873282423077601,2.390485112937199
3.893334153932019,2.5126266880507786
3.913385884786438,2.3643119182700034
3.9334376156408557,2.373036316492402
3.9534893464952736,2.355587520047605
3.973541077349692,2.56497307738517
3.9935928082041103,2.2683435378236196
4.013644539058529,2.2334459449340254
4.033696269912947,2.2683435378236196
4.0537480007673645,2.2334459449340254
4.073799731621784,2.128753166265243
4.093851462476201,2.303241130713214
4.11390319333062,1.8931944142604826
4.133954924185037,2.1636507591548373
4.154006655039455,1.7885016355917
4.174058385893874,2.0502335822636564
4.194110116748292,1.8408480249260915
4.2141618476027105,1.8408480249260915
4.234213578457128,1.753604042702106
4.254265309311547,1.6925332551453163
4.274317040165966,1.6838088569229177
4.294368771020383,1.5965648746989323
4.314420501874801,1.448250104918157
4.334472232729219,1.5529428835869397
4.354523963583638,1.526769688919744
4.3745756944380565,1.5965648746989323
4.394627425292474,1.5878404764765337
4.414679156146892,1.7099820515901134
4.434730887001312,1.4656989013629542
4.454782617855729,1.5529428835869397
4.474834348710147,1.526769688919744
4.494886079564566,1.5878404764765337
4.514937810418983,1.7361552462573089
4.5349895412734025,1.8757456178156855
4.55504127212782,2.058957980486055
4.575093002982238,2.547524280940373
4.595144733836657,2.4079339093819963
4.615196464691075,2.870327015169119
4.635248195545493,3.088436970729082
4.655299926399912,3.201854147620263
4.675351657254329,2.678390254276351
4.695403388108748,2.608595068497163
4.715455118963166,2.2159971484892282
4.735506849817584,1.5180452906973454
4.755558580672003,1.526769688919744
4.77561031152642,1.020754592020629
4.795662042380839,1.0818253795774186
4.815713773235258,1.0294789902430275
4.835765504089675,1.151620565356607
4.855817234944094,1.0905497777998172
4.875868965798511,1.0469277866878244
4.89592069665293,0.9945813973534332
4.915972427507349,0.9160618133518464
4.936024158361766,1.186518158246201
4.9560758892161845,1.0469277866878244
4.976127620070604,0.8811642204622523
4.996179350925021,0.9858569991310348
5.0162310817794395,0.7502982471262742
5.036282812633857,0.7939202382382669
5.056334543488275,0.8549910257950567
5.076386274342695,0.9247862115742449
5.096438005197112,0.8549910257950567
5.1164897360515305,0.8898886186846507
5.136541466905949,0.8986130169070493
5.156593197760367,0.8026446364606654
5.1766449286147855,0.942235008019042
5.196696659469204,0.959683804463839
5.216748390323621,0.9858569991310348
5.236800121178041,1.0033057955758318
5.256851852032458,1.0992741760222158
5.276903582886876,1.0643765831326215
5.296955313741295,1.2999353351373821
5.317007044595712,1.4046281138061645
5.3370587754501315,1.3522817244717733
5.35711050630455,1.3784549191389688
5.377162237158967,1.3348329280269762
5.397213968013386,1.2999353351373821
5.417265698867803,1.6489112640333234
5.437317429722222,1.526769688919744
5.457369160576641,0.9160618133518464
5.477420891431058,1.3348329280269762
5.497472622285477,1.038203388465426
5.517524353139896,0.8986130169070493
5.537576083994313,0.828817831127861
5.557627814848732,0.8026446364606654
5.577679545703149,0.7939202382382669
5.597731276557568,0.6717786631246874
5.617783007411987,0.7851958400158684
5.637834738266404,0.7241250524590785
5.657886469120823,0.8026446364606654
5.677938199975241,0.7154006542366801
5.697989930829659,0.5932590791231005
5.718041661684078,0.7677470435710713
5.738093392538495,0.7241250524590785
5.7581451233929135,0.7590226453486727
5.778196854247333,0.6805030613470859
5.79824858510175,0.6368810702350932
5.818300315956169,0.8724398222398537
5.838352046810587,0.8898886186846507
5.858403777665004,0.8375422293502596
5.878455508519424,0.7502982471262742
5.898507239373842,0.9945813973534332
5.9185589702282595,0.942235008019042
5.938610701082678,0.9160618133518464
5.958662431937096,0.9160618133518464
5.978714162791515,1.151620565356607
5.998765893645933,1.0992741760222158
6.01881762450035,1.1254473706894113
6.038869355354769,1.020754592020629
6.058921086209188,1.0033057955758318
6.0789728170636055,1.2999353351373821
6.099024547918024,1.4395257066957587
6.119076278772441,1.3522817244717733
6.139128009626861,1.5703916800317368
6.159179740481279,2.058957980486055
6.179231471335696,2.486453493383583
6.199283202190115,4.213884341418494
6.219334933044533,7.529155665929937
6.2393866638989515,15.79988518076375
6.25943839475337,34.86269529670456
6.279490125607787,68.64356521383169
6.299541856462206,126.45142783544439
6.319593587316625,211.46196411449574
6.339645318171042,319.26062855045205
6.359697049025461,423.2903529543322
6.379748779879879,507.86466932226364
6.399800510734297,532.301708743202
6.419852241588716,510.3075008245352
6.439903972443134,426.9109782166276
6.459955703297552,324.4778186874464
6.48000743415197,218.14485315285302
6.500059165006388,128.37079544437208
6.520110895860807,69.83880777030029
6.540162626715225,33.62383074912396
6.5602143575696426,15.887129162987737
6.580266088424061,7.380840896149163
6.60031781927848,3.5421056782938063
6.620369550132898,2.242170343156424
6.640421280987316,1.7187064498125117
6.6604730118417335,1.5180452906973454
6.680524742696153,1.6750844587005191
6.700576473550571,1.5703916800317368
6.7206282044049885,1.5878404764765337
6.740679935259407,1.9804383964844678
6.760731666113825,1.9106432107052798
6.780783396968244,1.9891627947068664
6.800835127822662,2.076406776930852
6.8208868586770794,2.259619139601221
6.840938589531498,2.5126266880507786
6.860990320385917,3.5944520676281972
6.8810420512403345,4.536687075647239
6.901093782094753,7.180179737033996
6.921145512949171,12.397369874028321
6.941197243803589,20.441265035079773
6.961248974658008,32.61180055532573
6.981300705512425,46.70170368449937
7.001352436366844,65.38936467687704
7.021404167221262,81.10200587541681
7.0414558980756805,91.60618133518464
7.061507628930099,92.90611667032202
7.081559359784517,86.16215684440796
7.101611090638935,72.787654369471
7.121662821493353,53.19265596196388
7.141714552347772,35.91834748161478
7.16176628320219,22.657262183569003
7.181818014056608,12.929558165594631
7.201869744911026,6.552023065021301
7.221921475765445,3.228027342287459
7.241973206619863,1.7623284409245046
7.262024937474281,1.0643765831326215
7.282076668328699,0.6368810702350932
7.302128399183117,0.4798419022319195
7.322180130037536,0.4885663004543181
7.342231860891954,0.6194322737902962
7.362283591746372,0.4449443093423254
7.38233532260079,0.6805030613470859
7.402387053455209,0.5670858844559049
7.422438784309627,0.4100467164527313
7.442490515164045,0.6630542649022888
7.462542246018463,0.584534680900702
7.482593976872881,0.5147394951215137
7.5026457077273,0.6805030613470859
7.522697438581718,0.5321882915663108
7.542749169436136,0.5321882915663108
7.562800900290554,0.38387352178553563
7.582852631144973,0.5147394951215137
7.602904361999391,0.5496370880111079
7.622956092853809,0.35770032711834004
7.643007823708227,0.4100467164527313
7.663059554562645,0.43621991111992686
7.6831112854170645,0.43621991111992686
7.703163016271482,0.42749551289752835
7.7232147471259,0.471117504009521
7.743266477980318,0.4798419022319195
7.763318208834737,0.5409126897887093
7.783369939689155,0.6717786631246874
7.803421670543573,0.6368810702350932
7.823473401397991,0.7502982471262742
7.84352513225241,0.6892274595694844
7.863576863106828,0.5670858844559049
7.883628593961246,0.8811642204622523
7.903680324815664,0.8026446364606654
7.923732055670082,0.8898886186846507
7.943783786524501,0.959683804463839
7.963835517378919,1.2475889458029907
7.983887248233337,1.3697305209165704
8.003938979087756,1.7448796444797074
8.023990709942174,1.6838088569229177
8.044042440796591,1.6314624675885265
8.064094171651009,1.5354940871421425
8.084145902505428,1.526769688919744
8.104197633359847,1.1603449635790055
8.124249364214265,1.0033057955758318
8.144301095068682,0.8462666275726581
8.164352825923102,0.5583614862335063
8.184404556777519,0.5583614862335063
8.204456287631938,0.5321882915663108
8.224508018486356,0.4013223182303327
8.244559749340775,0.4798419022319195
8.264611480195192,0.4885663004543181
8.28466321104961,0.4100467164527313
8.30471494190403,0.4798419022319195
8.324766672758447,0.3489759288959415
8.344818403612866,0.36642472534073856
8.364870134467283,0.45366870756472394
8.3849218653217,0.5060150968991152
8.40497359617612,0.4100467164527313
8.425025327030538,0.3228027342287459
8.445077057884957,0.4013223182303327
8.465128788739376,0.4013223182303327
8.485180519593792,0.45366870756472394
8.505232250448211,0.45366870756472394
8.52528398130263,0.471117504009521
8.545335712157048,0.584534680900702
8.565387443011467,0.471117504009521
8.585439173865883,0.4972906986767166
8.605490904720302,0.5932590791231005
8.625542635574721,0.7939202382382669
8.645594366429139,0.5932590791231005
8.665646097283558,0.5234638933439122
8.685697828137974,0.5496370880111079
8.705749558992393,0.5060150968991152
8.725801289846812,0.4013223182303327
8.74585302070123,0.3053539377839488
8.765904751555649,0.471117504009521
8.785956482410068,0.471117504009521
8.806008213264484,0.46239310578712245
8.826059944118903,0.5758102826783035
8.84611167497332,0.6368810702350932
8.86616340582774,0.697951857791883
8.886215136682159,0.584534680900702
8.906266867536575,0.5060150968991152
8.926318598390994,0.6107078755678976
8.946370329245411,0.6281566720126947
8.96642206009983,0.43621991111992686
8.98647379095425,0.5409126897887093
9.006525521808667,0.4972906986767166
9.026577252663085,0.43621991111992686
9.046628983517502,0.38387352178553563
9.066680714371921,0.4798419022319195
9.08673244522634,0.42749551289752835
9.106784176080758,0.4187711146751298
9.126835906935176,0.5321882915663108
9.146887637789593,0.36642472534073856
9.166939368644012,0.28790514133915174
9.186991099498432,0.4013223182303327
9.207042830352849,0.35770032711834004
9.227094561207267,0.42749551289752835
9.247146292061686,0.4013223182303327
9.267198022916103,0.4100467164527313
9.287249753770523,0.3053539377839488
9.30730148462494,0.4187711146751298
9.32735321547936,0.3925979200079342
9.347404946333777,0.43621991111992686
9.367456677188194,0.46239310578712245
9.387508408042613,0.2530075484495576
9.407560138897031,0.471117504009521
9.42761186975145,0.3140783360063473
9.447663600605868,0.3315271324511444
9.467715331460285,0.38387352178553563
9.487767062314704,0.4100467164527313
9.507818793169124,0.34025153067354297
9.527870524023541,0.4100467164527313
9.547922254877959,0.2530075484495576
9.567973985732376,0.4187711146751298
9.588025716586795,0.35770032711834004
9.608077447441215,0.4013223182303327
9.628129178295632,0.36642472534073856
9.648180909150051,0.4798419022319195
9.668232640004467,0.3751491235631371
9.688284370858886,0.34025153067354297
9.708336101713305,0.2530075484495576
9.728387832567723,0.42749551289752835
9.748439563422142,0.3228027342287459
9.768491294276558,0.46239310578712245
9.788543025130977,0.3140783360063473
9.808594755985396,0.3315271324511444
9.828646486839814,0.4187711146751298
9.848698217694233,0.4449443093423254
9.868749948548652,0.3925979200079342
9.888801679403068,0.34025153067354297
9.908853410257487,0.3925979200079342
9.928905141111905,0.4885663004543181
9.948956871966324,0.45366870756472394
9.969008602820743,0.27918074311675317
9.989060333675159,0.3489759288959415
10.009112064529578,0.3925979200079342
10.029163795383996,0.34025153067354297
10.049215526238415,0.38387352178553563
10.069267257092834,0.36642472534073856
10.08931898794725,0.27918074311675317
10.109370718801669,0.27918074311675317
10.129422449656087,0.3315271324511444
10.149474180510506,0.34025153067354297
10.169525911364925,0.4100467164527313
10.189577642219342,0.3315271324511444
10.20962937307376,0.3053539377839488
10.22968110392818,0.4187711146751298
10.249732834782597,0.4187711146751298
10.269784565637016,0.22683435378236197
10.289836296491433,0.3925979200079342
10.30988802734585,0.3925979200079342
10.32993975820027,0.2355587520047605
10.349991489054688,0.29662953956155025
10.370043219909107,0.3140783360063473
10.390094950763524,0.45366870756472394
10.410146681617944,0.4449443093423254
10.430198412472361,0.3053539377839488
10.450250143326778,0.3315271324511444
10.470301874181198,0.3315271324511444
10.490353605035615,0.42749551289752835
10.510405335890034,0.4449443093423254
10.530457066744452,0.3315271324511444
10.55050879759887,0.35770032711834004
10.570560528453289,0.4100467164527313
10.590612259307708,0.3751491235631371
10.610663990162125,0.4798419022319195
10.630715721016543,0.4013223182303327
10.65076745187096,0.28790514133915174
10.67081918272538,0.3228027342287459
10.690870913579799,0.35770032711834004
10.710922644434216,0.42749551289752835
10.730974375288636,0.36642472534073856
10.751026106143051,0.3751491235631371
10.77107783699747,0.3140783360063473
10.79112956785189,0.3751491235631371
10.811181298706307,0.3315271324511444
10.831233029560726,0.42749551289752835
10.851284760415142,0.4013223182303327
10.871336491269561,0.29662953956155025
10.89138822212398,0.28790514133915174
10.911439952978398,0.4100467164527313
