Energy (keV),Intensity (cps),slope,offset,liveTime
-0.017217458956643884,0.0,20.05594293969134,-17.217458956643885,52.660057067871094
0.002838483983047457,0.0
0.022894426922738798,0.0
0.042950369862430136,0.0
0.06300631280212149,0.0
0.08306225574181282,0.0
0.10311819868150417,0.0
0.12317414162119551,0.0
0.14323008456088684,0.0
0.16328602750057816,0.0
0.1833419704402695,0.0
0.20339791337996088,0.0
0.2234538563196522,0.0
0.24350979925934355,0.0
0.2635657421990349,0.0
0.2836216851387262,0.0
0.3036776280784176,0.0
0.32373357101810896,0.0
0.3437895139578002,0.0
0.3638454568974916,0.0
0.3839013998371829,0.0
0.4039573427768743,0.0
0.42401328571656566,0.0
0.4440692286562569,0.0
0.4641251715959483,0.0
0.48418111453563967,0.018989724958162247
0.504237057475331,0.037979449916324494
0.5242930004150224,0.11393834974897349
0.5443489433547137,0.20888697453978472
0.5644048862944051,0.30383559933059595
0.5844608292340963,0.5696917487448674
0.6045167721737876,0.8925170730336257
0.624572715113479,1.4242293718621686
0.6446286580531704,1.7090752462346024
0.6646846009928618,1.993921120607036
0.684740543932553,2.601592319268228
0.7047964868722444,3.0573457182641217
0.7248524298119358,3.2662326928039067
0.7449083727516271,3.9308730663395854
0.7649643156913185,4.329657290460992
0.7850202586310097,4.443595640209966
0.805076201570701,5.431061338034403
0.8251321445103924,5.867825012072134
0.8451880874500838,7.159126309227167
0.8652440303897752,9.058098805043393
0.8852999733294665,11.184948000357565
0.9053559162691578,14.717036842575743
0.9254118592088492,18.970735233204085
0.9454678021485405,21.87616315180291
0.9655237450882319,19.027704408078574
0.9855796880279232,15.837430615107316
1.0056356309676144,12.704125997010545
1.0256915739073058,12.172413698182002
1.0457475168469974,13.615632795002332
1.0658034597866886,14.982892991990013
1.0858594027263797,16.160255939396073
1.1059153456660713,14.792995742408392
1.1259712886057625,13.558663620127845
1.146027231545454,12.49523902247076
1.1660831744851452,13.995427294165577
1.1861391174248366,17.508526411425592
1.206195060364528,22.255957650966156
1.2262510033042193,26.300769067054713
1.2463069462439107,25.142395844606817
1.266362889183602,19.749313956488738
1.2864188321232932,16.71095796318278
1.3064747750629846,13.140889671048276
1.326530718002676,12.020495898516703
1.3465866609423673,12.780084896843192
1.3666426038820587,17.413577786634782
1.3866985468217499,39.89741213709888
1.4067544897614415,102.7154222986996
1.4268104327011326,250.3985132983274
1.4468663756408242,456.28511129472247
1.4669223185805154,650.9297921158856
1.4869782615202065,691.7577007759344
1.507034204459898,572.8440430879224
1.5270901473995893,381.674481934103
1.5471460903392809,231.95949036395186
1.567202033278972,151.63295379092554
1.5872579762186634,106.98811041428611
1.6073139191583548,102.98127844811387
1.6273698620980461,204.82317339873802
1.6474258050377375,636.0608374736445
1.6674817479774289,1766.3102772585034
1.6875376909171202,3837.177763396013
1.7075936338568114,6381.933835864461
1.7276495767965028,8031.3053868306015
1.7477055197361941,7733.223674162328
1.7677614626758855,5739.473461079916
1.787817405615577,3365.3400673605556
1.8078733485552683,1675.5773714084041
1.8279292914949594,826.4708096291373
1.847985234434651,441.37817720256515
1.8680411773743422,257.72854713217805
1.8880971203140335,148.42369027299614
1.908153063253725,88.22626215562181
1.928209006193416,69.92016729595339
1.9482649491331077,65.4385922058271
1.9683208920727988,64.01436283396494
1.9883768350124904,66.1981812041536
2.008432777952182,61.48872941452936
2.0284887208918727,54.46253118000933
2.0485446638315645,47.45532267044746
2.0686006067712555,36.59319999437865
2.088656549710947,31.883748204754415
2.1087124926506386,30.66840580743203
2.1287684355903296,31.35203590592587
2.148824378530021,33.06111115216047
2.1688803214697123,33.42191592636556
2.1889362644094037,32.662326928039064
2.208992207349095,37.84652184161736
2.2290481502887864,41.79638463291511
2.249104093228478,46.676743947162805
2.269160036168169,56.304534500951064
2.28921597910786,63.121845760931315
2.309271922047552,69.08461939779426
2.3293278649872433,67.67937975089025
2.3493838079269342,67.62241057601577
2.3694397508666256,62.134380063106875
2.389495693806317,60.72914041620287
2.409551636746009,56.323524225909225
2.4296075796856997,51.69003133611764
2.449663522625391,48.34783974348108
2.4697194655650825,48.119963043983134
2.4897754085047734,51.8609388607411
2.5098313514444652,54.50051062992565
2.5298872943841566,62.00145198839974
2.549943237323848,80.2315879482355
2.569999180263539,115.91328114462236
2.5900551232032303,178.69331185630676
2.610111066142922,286.93474411783154
2.6301670090826135,448.91709801095556
2.6502229520223044,664.4314865611389
2.6702788949619958,890.9978950369726
2.690334837901687,988.1303381979726
2.7103907808413785,945.3654775921912
2.73044672378107,768.6660868564915
2.7505026667207613,582.7946589659994
2.7705586096604526,475.52170267734084
2.7906145526001436,483.97213028372306
2.8106704955398354,554.765824927752
2.8307264384795268,613.9567976223436
2.850782381419218,607.5002911365684
2.870838324358909,572.6921252882571
2.8908942672986004,560.1399170909118
2.9109502102382923,608.259880134895
2.931006153177983,689.3080262563315
2.9510620961176746,731.9019793374894
2.971118039057366,683.4781806941756
2.9911739819970573,561.2982903133598
3.0112299249367487,398.6892754966164
3.03128586787644,257.5956190574709
3.0513418108161314,158.46925477586396
3.0713977537558224,108.6022370357299
3.0914536966955137,91.73936127288182
3.1115096396352055,101.006347052465
3.131565582574897,110.34929173188083
3.151621525514588,132.1494959838511
3.1716774684542792,171.4202471973306
3.1917334113939706,260.3111497264881
3.2117893543336624,467.65995654466167
3.2318452972733533,924.3058726135893
3.2519012402130447,1685.6988948111045
3.271957183152736,2680.8744209685556
3.2920131260924275,3579.7910313130815
3.312069069032119,4003.964517703552
3.33212501197181,3691.735459941448
3.3521809549115016,2832.887169258644
3.3722368978511925,1823.260462408032
3.3922928407908843,993.7702865105467
3.4123487837305757,479.73742161805285
3.432404726670267,235.24471278171393
3.452460669609958,146.63865612692888
3.4725166125496494,134.94098555270094
3.492572555489341,172.06589784590813
3.512628498429032,242.9545411147278
3.5326844413687235,357.61450041211145
3.552740384308415,511.4502622981838
3.5727963272481063,703.9301144741164
3.5928522701877976,936.8390910859763
3.612908213127489,1282.7179414739435
3.6329641560671804,1743.541597033667
3.6530200990068717,2332.8307419353578
3.6730760419465627,2788.81201763075
3.6931319848862545,2904.4784323509157
3.713187927825946,2584.159751756635
3.733243870765637,1958.7331602595614
3.753299813705328,1265.5322403868067
3.7733557566450195,706.7216040429662
3.7934116995847114,363.7861610235142
3.8134676425244023,190.50492078028367
3.8335235854640937,118.0021508900202
3.853579528403785,101.82290522566598
3.873635471343476,102.06977165012208
3.893691414283168,115.98924004445502
3.913747357222859,151.23416956680416
3.9338033001625505,206.87406369421953
3.9538592431022415,289.6502747868488
3.973915186041933,383.17467020579784
3.9939711289816247,469.4639804156871
4.014027071921316,496.22050288173773
4.034083014861007,463.95696017782006
4.054138957800698,385.3205091260702
4.074194900740389,280.9909602059268
4.094250843680081,196.35375606739765
4.114306786619773,140.86577973964756
4.134362729559464,107.57679188798913
4.154418672499155,92.0052174222961
4.174474615438847,86.11840268526579
4.1945305583785375,82.47237549329864
4.214586501318229,81.02915639647831
4.234642444257921,79.18715307553657
4.254698387197612,82.92812889229454
4.274754330137304,84.33336853919855
4.294810273076994,85.5107314866046
4.314866216016686,85.37780341189746
4.334922158956378,91.56845374825836
4.3549781018960685,101.84189495062414
4.37503404483576,123.0913971788077
4.395089987775451,163.2356757403627
4.415145930715143,231.02899384100192
4.435201873654834,332.16826896817406
4.455257816594525,444.28360512116393
4.475313759534217,565.5140092540718
4.495369702473908,643.144004883039
4.5154256454135995,643.2009740579135
4.535481588353291,579.6043851730282
4.555537531292982,469.71084684014323
4.575593474232673,344.568559365854
4.595649417172364,249.63892430000092
4.615705360112056,192.13803712668562
4.635761303051748,161.50761076916993
4.655817245991439,148.2337930234145
4.6758731889311305,142.08112213696995
4.695929131870821,138.66297164450074
4.715985074810512,137.9793415460069
4.736041017750204,141.66334818789036
4.756096960689895,149.35418679594608
4.776152903629587,153.58889546161626
4.796208846569278,167.64129193065634
4.81626478950897,177.19312358461193
4.8363207324486615,189.137660583296
4.856376675388352,201.17714620677086
4.876432618328043,222.3886689850381
4.896488561267734,230.76313769158764
4.916544504207426,244.9104827854185
4.936600447147118,245.85996903332662
4.956656390086809,243.67615066313797
4.976712333026501,233.76351423497727
4.9967682759661916,224.38259010564514
5.0168242189058825,213.2356215552039
5.036880161845574,205.92457744631142
5.056936104785265,201.4999715310596
5.076992047724957,196.41072524227212
5.097047990664648,197.17031424059863
5.11710393360434,193.6002459484641
5.137159876544032,195.02447532032627
5.157215819483722,190.9416844543214
5.1772717624234135,188.85281470892355
5.197327705363104,188.7198866342164
5.217383648302796,187.5235339618522
5.237439591242488,188.11221543555524
5.257495534182179,186.1182943149482
5.277551477121871,186.78293468848386
5.297607420061561,193.27742062417536
5.317663363001253,200.58846473306784
5.3377193059409445,209.4946457384459
5.357775248880635,219.76808694081168
5.377831191820327,229.64274391905607
5.397887134760018,238.1311509753546
5.41794307769971,241.13152751874424
5.437999020639402,234.16229845909868
5.458054963579092,220.4137375893892
5.478110906518784,210.7669573106428
5.498166849458475,198.21474911329756
5.518222792398166,186.65000661377672
5.538278735337858,183.9534656697177
5.558334678277549,176.09171953703853
5.578390621217241,173.7939628171009
5.598446564156931,167.29947688140942
5.618502507096623,171.15439104791633
5.638558450036315,174.23072649113863
5.6586143929760055,169.04653157756033
5.678670335915697,169.69218222613785
5.698726278855388,178.50341460672513
5.71878222179508,181.0860172010352
5.738838164734771,179.9846131534618
5.758894107674462,188.56796883455112
5.778950050614154,204.15853302520233
5.799005993553845,219.48324106643926
5.8190619364935365,254.84210893853736
5.839117879433228,279.35784385952485
5.859173822372919,315.85609522911267
5.87922976531261,335.37753248610346
5.899285708252301,347.79681260874156
5.919341651191993,336.74479268309113
5.939397594131685,308.01333882139164
5.959453537071376,271.09731350272426
5.9795094800110675,239.34649337267697
5.9995654229507585,214.71682010194053
6.01962136589045,199.37312233574545
6.039677308830141,186.3651607394043
6.059733251769832,182.37731849819022
6.079789194709524,175.93980173737322
6.099845137649215,174.9903154894651
6.119901080588907,174.5535518154274
6.1399570235285985,182.54822602281368
6.160012966468289,179.47189057959142
6.18006890940798,185.8144587156176
6.200124852347671,197.55010873976187
6.220180795287363,224.9902613043063
6.240236738227055,282.9848813265338
6.260292681166746,418.3626305532725
6.280348624106438,671.4007156207845
6.300404567046129,1085.1868224591399
6.3204605099858195,1689.5727987025698
6.340516452925511,2426.3171579043906
6.360572395865202,3173.7527322576566
6.380628338804894,3740.2162277596362
6.400684281744585,3935.1077750052555
6.420740224684277,3695.2675487836664
6.440796167623969,3130.83595385221
6.460852110563659,2371.398873325385
6.4809080535033505,1641.0540514344652
6.500963996443042,1050.3976463357865
6.521019939382733,637.636984645172
6.541075882322425,394.39759765607175
6.561131825262116,266.76765621226326
6.581187768201808,208.88697453978472
6.6012437111415,180.82016105162091
6.62129965408119,170.35682259967354
6.6413555970208815,171.55317527203775
6.6614115399605724,166.1411036589615
6.681467482900264,163.4825421648188
6.701523425839956,166.52089815812477
6.721579368779647,161.75447719362603
6.741635311719339,162.0203333430403
6.761691254659029,158.92500817485984
6.781747197598721,162.6280045417015
6.8018031405384125,162.05831279295663
6.821859083478103,167.24250770653492
6.841915026417795,168.02108642981958
6.861970969357486,178.38947625697617
6.882026912297178,184.77002384291868
6.902082855236869,202.39248860409324
6.92213879817656,232.20635678840796
6.942194741116252,283.5355833503205
6.962250684055943,359.11468868380626
6.982306626995634,459.60831316240086
7.002362569935326,570.6792144426919
7.022418512875017,654.9556138070159
7.042474455814709,722.027322359245
7.062530398754399,723.2046853066511
7.082586341694091,671.6665717701987
7.102642284633783,575.3316970574416
7.122698227573474,461.6971829077987
7.142754170513165,348.1386276579885
7.162810113452856,261.6214407486013
7.182866056392548,207.044971218843
7.202921999332239,170.24288424992454
7.22297794227193,146.29684107768196
7.243033885211622,137.75146484650895
7.263089828151313,132.30141378351638
7.283145771091005,129.58588311449918
7.303201714030696,131.02910221131953
7.323257656970387,129.96567761366242
7.343313599910078,130.32648238786751
7.363369542849769,128.59841741667475
7.383425485789461,131.16203028602663
7.403481428729153,133.61170480562959
7.423537371668844,130.00365706357874
7.443593314608536,131.90262955939497
7.4636492575482265,131.88363983443682
7.483705200487917,132.30141378351638
7.503761143427609,127.89579759322274
7.5238170863673,127.89579759322274
7.543873029306992,129.39598586491755
7.563928972246683,128.65538659154922
7.583984915186375,126.79439354564933
7.604040858126067,125.1992566491637
7.6240968010657575,126.87035244548198
7.644152744005448,125.78793812286673
7.664208686945139,123.68007865251072
7.684264629884831,125.02834912454024
7.704320572824523,122.97745882905872
7.724376515764214,122.69261295468628
7.744432458703906,122.80655130443526
7.764488401643597,120.05304118550173
7.784544344583288,120.33788705987416
7.804600287522979,121.6291883570292
7.82465623046267,121.97100340627613
7.844712173402362,122.04696230610877
7.864768116342053,120.60374320928844
7.884824059281745,119.23648301230075
7.904880002221437,118.13507896472734
7.924935945161127,116.57792151815804
7.944991888100819,118.47689401397426
7.9650478310405095,115.72338389504074
7.985103773980201,115.3435893958775
8.005159716919893,115.0397537965469
8.025215659859583,115.78035306991522
8.045271602799275,122.31281845552304
8.065327545738967,124.5915854505025
8.085383488678659,128.48447906692576
8.10543943161835,130.40244128770016
8.12549537455804,136.0613793252325
8.145551317497732,131.82667065956232
8.165607260437422,131.9406090093113
8.185663203377114,124.91441077479126
8.205719146316806,125.63602032320144
8.225775089256498,119.59728778650585
8.24583103219619,112.15331560290623
8.26588697513588,106.8931617894953
8.285942918075573,109.0010212598513
8.305998861015263,102.65845312382511
8.326054803954953,102.79138119853225
8.346110746894645,102.08876137508024
8.366166689834337,101.95583330037311
8.386222632774029,98.86050813219266
8.406278575713719,100.7025114531344
8.426334518653412,98.86050813219266
8.446390461593102,96.56275141225503
8.466446404532793,96.08800828830097
8.486502347472486,96.10699801325914
8.506558290412176,96.84759728662746
8.526614233351868,96.35386443771525
8.546670176291558,97.32234041058152
8.566726119231252,93.94216936802864
8.586782062170942,94.73973781627146
8.606838005110632,92.93571394524604
8.626893948050325,92.19511467187772
8.646949890990015,92.13814549700322
8.667005833929707,95.0245836906439
8.687061776869399,92.27107357171036
8.70711771980909,94.15105634256842
8.72717366274878,91.87228934758896
8.74722960568847,90.59997777539209
8.767285548628164,90.41008052581046
8.787341491567854,92.78379614558074
8.807397434507546,90.35311135093598
8.827453377447238,88.73898472949219
8.84750932038693,83.85862541524449
8.86756526332662,86.38425883468007
8.887621206266312,84.61821441357098
8.907677149206004,82.14955016900988
8.927733092145694,78.78836885141517
8.947789035085385,81.90268374455377
8.967844978025077,77.9148415033397
8.98790092096477,77.34514975459484
9.00795686390446,76.68050938105915
9.028012806844151,76.54758130635201
9.048068749783843,73.75609173750217
9.068124692723533,74.49669101087049
9.088180635663226,73.26235888858996
9.108236578602916,72.55973906513795
9.128292521542608,72.36984181555633
9.148348464482298,69.23653719745955
9.16840440742199,68.02119480013717
9.188460350361682,64.64102375758429
9.208516293301372,64.50809568287715
9.228572236241066,63.99537310900678
9.248628179180756,60.27338701720698
9.268684122120447,61.127924640324274
9.28874006506014,56.60837010028166
9.30879600799983,57.121092674152045
9.328851950939521,54.5764695297583
9.348907893879211,54.51950035488382
9.368963836818905,51.99386693544824
9.389019779758595,50.77852453812585
9.409075722698287,48.49975754314638
9.429131665637978,46.4298775227067
9.44918760857767,45.19554540042615
9.46924355151736,43.50545987914971
9.489299494457052,43.63838795385685
9.509355437396744,41.47355930862635
9.529411380336434,38.26429579069693
9.549467323276126,38.359244415487744
9.569523266215818,36.70713834412763
9.58957920915551,37.40975816757963
9.6096351520952,37.390768442621464
9.629691095034891,38.549141665069364
9.649747037974583,38.454193040278554
9.669802980914273,38.07439854111531
9.689858923853967,38.9859053391071
9.709914866793657,38.15035744094796
9.729970809733349,37.371778717663304
9.750026752673039,35.79563154613584
9.77008269561273,30.30760103322695
9.790138638552422,29.927806534063702
9.810194581492112,26.43369714176185
9.830250524431806,22.92059802450183
9.850306467371496,21.173543328350906
9.870362410311188,18.799827708580626
9.89041835325088,17.907310635547
9.91047429619057,17.413577786634782
9.930530239130261,17.451557236551107
9.950586182069951,16.521060713601155
9.970642125009645,17.546505861341917
9.990698067949335,18.894776333371436
10.010754010889027,18.17316678496127
10.030809953828719,17.850341460672514
10.050865896768409,18.192156509919435
10.0709218397081,18.571951009082678
10.090977782647792,18.26811540975208
10.111033725587484,16.786916863015428
10.131089668527174,15.799451165190991
10.151145611466866,14.128355368872713
10.171201554406558,12.324331497847298
10.191257497346248,9.475872754122962
10.21131344028594,8.982139905210744
10.231369383225632,6.9502393346873825
10.251425326165323,6.323578411068029
10.271481269105013,5.9437839119047835
10.291537212044707,5.450051062992565
10.311593154984397,6.07671198661192
10.331649097924087,6.285598961151704
10.35170504086378,6.380547585942515
10.37176098380347,6.285598961151704
10.391816926743163,6.190650336360893
10.411872869682853,5.924794186946621
10.431928812622546,5.8298455621558105
10.451984755562236,5.563989412741539
10.472040698501926,4.956318214080347
10.49209664144162,4.253698390628344
10.51215258438131,3.8359244415487743
10.532208527321002,3.437140217427367
10.552264470260694,3.7789552666742874
10.572320413200385,3.2662326928039067
10.592376356140075,3.456129942385529
10.612432299079767,3.7409758167579628
10.632488242019459,3.3421915926365555
10.65254418495915,3.4751196673436913
10.672600127898841,3.9498627912977478
10.692656070838533,4.3486470154191545
10.712712013778225,4.025821691130397
10.732767956717915,4.443595640209966
10.752823899657608,4.215718940712019
10.772879842597298,4.481575090126291
10.792935785536988,4.2916778405446685
10.81299172847668,4.7664209644987245
10.833047671416372,4.861369589289535
10.853103614356064,4.747431239540562
10.873159557295754,4.481575090126291
10.893215500235447,4.89934903920586
10.913271443175137,4.196729215753857
10.933327386114827,4.424605915251804
10.953383329054521,4.481575090126291
10.973439271994211,3.892893616423261
10.993495214933903,3.854914166506936
