Energy (keV),Intensity (cps),slope,offset,liveTime
-0.017217458956643884,0.0,20.05594293969134,-17.217458956643885,50.2187385559082
0.002838483983047457,0.0
0.022894426922738798,0.0
0.042950369862430136,0.0
0.06300631280212149,0.0
0.08306225574181282,0.0
0.10311819868150417,0.0
0.12317414162119551,0.0
0.14323008456088684,0.0
0.16328602750057816,0.0
0.1833419704402695,0.0
0.20339791337996088,0.0
0.2234538563196522,0.0
0.24350979925934355,0.0
0.2635657421990349,0.0
0.2836216851387262,0.0
0.3036776280784176,0.0
0.32373357101810896,0.0
0.3437895139578002,0.0
0.3638454568974916,0.0
0.3839013998371829,0.0
0.4039573427768743,0.0
0.42401328571656566,0.0
0.4440692286562569,0.0
0.4641251715959483,0.07965154273134172
0.48418111453563967,0.23895462819402516
0.504237057475331,0.4380834850223794
0.5242930004150224,0.7168638845820754
0.5443489433547137,1.4536406548469862
0.5644048862944051,2.1904174251118973
0.5844608292340963,4.18170599339544
0.6045167721737876,5.79464973370511
0.624572715113479,7.66646098789164
0.6446286580531704,11.250780410802017
0.6646846009928618,13.600500921376598
0.684740543932553,16.746736859264594
0.7047964868722444,19.753582597372745
0.7248524298119358,21.78469693702196
0.7449083727516271,24.114504561913705
0.7649643156913185,25.508406559712185
0.7850202586310097,28.79403269738003
0.805076201570701,29.7896769815218
0.8251321445103924,29.252029068085246
0.8451880874500838,30.108283152447168
0.8652440303897752,30.606105294518056
0.8852999733294665,29.71002543879046
0.9053559162691578,30.18793469517851
0.9254118592088492,31.601749578659824
0.9454678021485405,30.58619240883522
0.9655237450882319,30.745495494297902
0.9855796880279232,29.510896581962104
1.0056356309676144,31.72122689275684
1.0256915739073058,30.805234151346408
1.0457475168469974,31.58183669297699
1.0658034597866886,30.606105294518056
1.0858594027263797,30.36715066632403
1.1059153456660713,28.774119811697194
1.1259712886057625,30.964537236809093
1.146027231545454,31.044188779540434
1.1660831744851452,30.44680220905537
1.1861391174248366,29.67019966742479
1.206195060364528,29.431245039230763
1.2262510033042193,29.570635239010613
1.2463069462439107,27.917865727335272
1.266362889183602,29.05290021125689
1.2864188321232932,28.077168812797954
1.3064747750629846,29.67019966742479
1.326530718002676,26.902308557510665
1.3465866609423673,28.09708169848079
1.3666426038820587,28.813945583062864
1.3866985468217499,27.599259556409905
1.4067544897614415,28.037343041432283
1.4268104327011326,29.909154295618816
1.4468663756408242,31.22340475068595
1.4669223185805154,31.382707836148636
1.4869782615202065,29.411332153547928
1.507034204459898,29.88924140993598
1.5270901473995893,29.4511579249136
1.5471460903392809,27.73864975618975
1.567202033278972,26.74300547204798
1.5872579762186634,24.95084576059279
1.6073139191583548,25.687622530857702
1.6273698620980461,25.48849367402935
1.6474258050377375,26.44431218680545
1.6674817479774289,27.8780399559696
1.6875376909171202,31.22340475068595
1.7075936338568114,33.951470089234405
1.7276495767965028,35.28563342998438
1.7477055197361941,36.67953542778286
1.7677614626758855,32.33852634892474
1.787817405615577,29.13255175398823
1.8078733485552683,28.23647189826064
1.8279292914949594,27.73864975618975
1.847985234434651,27.161176071387526
1.8680411773743422,27.678911099141246
1.8880971203140335,27.18108895707036
1.908153063253725,27.83821418460393
1.928209006193416,30.66584395156656
1.9482649491331077,28.75420692601436
1.9683208920727988,28.813945583062864
1.9883768350124904,28.05725592711512
2.008432777952182,27.49969512799573
2.0284887208918727,25.926577159051728
2.0485446638315645,25.64779675949203
2.0686006067712555,25.767274073589046
2.088656549710947,24.672065361033095
2.1087124926506386,25.986315816100234
2.1287684355903296,25.149974617421147
2.148824378530021,24.771629789447275
2.1688803214697123,23.55694376279431
2.1889362644094037,24.65215247535026
2.208992207349095,24.87119421786145
2.2290481502887864,24.672065361033095
2.249104093228478,24.21406899032788
2.269160036168169,24.95084576059279
2.28921597910786,24.592413818301754
2.309271922047552,25.010584417641297
2.3293278649872433,24.71189113239877
2.3493838079269342,23.616682419842817
2.3694397508666256,23.25825047755178
2.389495693806317,22.581212364335375
2.409551636746009,23.497205105745806
2.4296075796856997,23.118860277771933
2.449663522625391,22.8201669925294
2.4697194655650825,21.665219622924948
2.4897754085047734,23.13877316345477
2.5098313514444652,21.685132508607783
2.5298872943841566,21.565655194510768
2.549943237323848,21.406352109048086
2.569999180263539,21.08774593812272
2.5900551232032303,21.406352109048086
2.610111066142922,22.581212364335375
2.6301670090826135,22.44182216455553
2.6502229520223044,22.04356445089882
2.6702788949619958,21.34661345199958
2.690334837901687,20.868704195611528
2.7103907808413785,21.08774593812272
2.73044672378107,21.008094395391378
2.7505026667207613,21.42626499473092
2.7705586096604526,21.804609822704794
2.7906145526001436,20.39079493922348
2.8106704955398354,20.749226881514517
2.8307264384795268,20.629749567417505
2.850782381419218,20.868704195611528
2.870838324358909,20.39079493922348
2.8908942672986004,19.793408368738415
2.9109502102382923,22.063477336581656
2.931006153177983,23.39764067733163
2.9510620961176746,24.990671531958462
2.971118039057366,23.696333962574162
2.9911739819970573,22.640951021383884
3.0112299249367487,20.928442852660037
3.03128586787644,19.454889312130213
3.0513418108161314,18.857502741645153
3.0713977537558224,18.499070799354115
3.0914536966955137,17.90168422886905
3.1115096396352055,17.344123429749658
3.131565582574897,17.881771343186216
3.151621525514588,18.45924502798844
3.1716774684542792,19.892972797152595
3.1917334113939706,20.769139767197352
3.2117893543336624,22.342257736141352
3.2318452972733533,28.13690746984646
3.2519012402130447,35.32545920135005
3.271957183152736,49.18482763660351
3.2920131260924275,56.07468608286457
3.312069069032119,58.80275142141302
3.33212501197181,56.93094016722649
3.3521809549115016,48.06970603836473
3.3722368978511925,36.360929256857496
3.3922928407908843,28.43560075508899
3.4123487837305757,21.446177880413757
3.432404726670267,17.802119800454875
3.452460669609958,17.622903829309355
3.4725166125496494,16.746736859264594
3.492572555489341,18.021161542966063
3.512628498429032,18.041074428648898
3.5326844413687235,20.072188768298112
3.552740384308415,23.238337591868945
3.5727963272481063,33.97138297491724
3.5928522701877976,50.757945605547505
3.612908213127489,85.12758629412146
3.6329641560671804,132.79903461882947
3.6530200990068717,188.31615990257464
3.6730760419465627,237.38151022508114
3.6931319848862545,250.2850601475585
3.713187927825946,225.6528205578911
3.733243870765637,176.52773157833607
3.753299813705328,117.94402189943425
3.7733557566450195,70.3721380031404
3.7934116995847114,39.12882036677162
3.8134676425244023,23.4374664486973
3.8335235854640937,17.344123429749658
3.853579528403785,14.954577147809408
3.873635471343476,15.870569889219837
3.893691414283168,16.806475516313103
3.913747357222859,20.191666082395123
3.9338033001625505,24.034853019182364
3.9538592431022415,31.382707836148636
3.973915186041933,39.78594559430519
3.9939711289816247,48.089618924047564
4.014027071921316,49.364043607749025
4.034083014861007,46.91475866876027
4.054138957800698,39.66646828020817
4.074194900740389,30.028631609715827
4.094250843680081,21.74487116565629
4.114306786619773,17.324210544066823
4.134362729559464,14.058497292081812
4.154418672499155,12.186686037895283
4.174474615438847,11.449909267630371
4.1945305583785375,11.111390211022169
4.214586501318229,11.708776781507233
4.234642444257921,11.011825782607993
4.254698387197612,11.449909267630371
4.274754330137304,10.812696925779639
4.294810273076994,11.4100834962647
4.314866216016686,10.23522324097741
4.334922158956378,11.37025772489903
4.3549781018960685,12.525205094503486
4.37503404483576,16.487869345387736
4.395089987775451,21.12757170948839
4.415145930715143,36.978228713025395
4.435201873654834,58.3447550507078
4.455257816594525,86.18296923531173
4.475313759534217,116.19168795934473
4.495369702473908,134.7305845300645
4.5154256454135995,138.7131616666316
4.535481588353291,125.07283497388933
4.555537531292982,99.10643204347193
4.575593474232673,72.94090025622617
4.595649417172364,52.09210894629748
4.615705360112056,37.476050855096275
4.635761303051748,32.517742320070255
4.655817245991439,26.723092586365144
4.6758731889311305,24.65215247535026
4.695929131870821,21.924087136801806
4.715985074810512,18.399506370939935
4.736041017750204,15.392660632831786
4.756096960689895,13.062853007940042
4.776152903629587,12.76415972269751
4.796208846569278,11.151215982387841
4.81626478950897,14.277539034593003
4.8363207324486615,17.344123429749658
4.856376675388352,20.490359367637655
4.876432618328043,23.47729222006297
4.896488561267734,27.778475527555422
4.916544504207426,32.61730674848443
4.936600447147118,32.00000729231653
4.956656390086809,30.347237780641194
4.976712333026501,25.767274073589046
4.9967682759661916,20.629749567417505
5.0168242189058825,15.99004720331685
5.036880161845574,12.28625046630946
5.056936104785265,10.294961898025917
5.076992047724957,8.423150643839387
5.097047990664648,7.546983673794627
5.11710393360434,8.562540843619235
5.137159876544032,7.208464617186425
5.157215819483722,8.204108901328198
5.1772717624234135,8.243934672693868
5.197327705363104,9.398882042298322
5.217383648302796,9.299317613884146
5.237439591242488,9.378969156615486
5.257495534182179,9.4984464707125
5.277551477121871,9.817052641637867
5.297607420061561,11.310519067850523
5.317663363001253,10.693219611682625
5.3377193059409445,12.365902009040802
5.357775248880635,13.042940122257207
5.377831191820327,13.640326692742269
5.397887134760018,13.819542663887788
5.41794307769971,13.122591664988548
5.437999020639402,13.46111072159675
5.458054963579092,11.768515438555738
5.478110906518784,10.474177869171436
5.498166849458475,8.62227950066774
5.518222792398166,8.383324872473716
5.538278735337858,7.029248646040906
5.558334678277549,6.869945560578223
5.578390621217241,6.790294017846882
5.598446564156931,6.0734301332648055
5.618502507096623,6.033604361899135
5.638558450036315,6.352210532824502
5.6586143929760055,6.392036304190173
5.678670335915697,6.0734301332648055
5.698726278855388,5.934039933484958
5.71878222179508,5.953952819167793
5.738838164734771,6.889858446261059
5.758894107674462,8.124457358596855
5.778950050614154,12.06720872379827
5.799005993553845,16.02987297468252
5.8190619364935365,23.13877316345477
5.839117879433228,31.9800944066337
5.859173822372919,42.275056304659614
5.87922976531261,47.392667925148324
5.899285708252301,48.74674415158113
5.919341651191993,48.26883489519308
5.939397594131685,39.38768788064848
5.959453537071376,30.506540866103876
5.9795094800110675,21.884261365436135
5.9995654229507585,15.930308546268343
6.01962136589045,12.823898379746016
6.039677308830141,10.19539746961174
6.059733251769832,9.478533585029664
6.079789194709524,10.135658812563234
6.099845137649215,10.89234846851098
6.119901080588907,11.848166981287081
6.1399570235285985,13.71997823547361
6.160012966468289,16.4679564597049
6.18006890940798,21.466090766096592
6.200124852347671,34.887375716327675
6.220180795287363,65.9315644958681
6.240236738227055,141.34166257676588
6.260292681166746,300.0075356975986
6.280348624106438,603.7985196749358
6.300404567046129,1098.1159938656426
6.3204605099858195,1835.1914574157959
6.340516452925511,2736.0703185929538
6.360572395865202,3627.4905590707644
6.380628338804894,4299.032715838706
6.400684281744585,4542.706697939563
6.420740224684277,4285.3326504889155
6.440796167623969,3586.390363021392
6.460852110563659,2702.377716017596
6.4809080535033505,1817.8473339860464
6.500963996443042,1100.34623706212
6.521019939382733,589.3417646691973
6.541075882322425,290.5887407696174
6.561131825262116,134.96953915825853
6.581187768201808,62.626025472517426
6.6012437111415,32.139397492096386
6.62129965408119,20.171753196712288
6.6413555970208815,16.925952830410115
6.6614115399605724,13.819542663887788
6.681467482900264,15.532050832611635
6.701523425839956,14.11823594913032
6.721579368779647,14.078410177764649
6.741635311719339,13.739891121156447
6.761691254659029,14.874925605078065
6.781747197598721,16.229001831510875
6.8018031405384125,16.54760800243624
6.821859083478103,20.60983668173467
6.841915026417795,24.25389476169355
6.861970969357486,30.207847580861344
6.882026912297178,42.83261710377901
6.902082855236869,64.03984035599873
6.92213879817656,106.17550646087851
6.942194741116252,169.1798767613698
6.962250684055943,269.3815175173977
6.982306626995634,401.7225557655219
7.002362569935326,542.0486611724632
7.022418512875017,675.0667375338039
7.042474455814709,751.3330896990635
7.062530398754399,770.2702439834401
7.082586341694091,698.7630714963781
7.102642284633783,575.9802183760148
7.122698227573474,432.68709300233104
7.142754170513165,292.85880973746066
7.162810113452856,181.80464628428746
7.182866056392548,104.90108177717704
7.202921999332239,52.94836303065941
7.22297794227193,27.559433785044234
7.243033885211622,13.978845749350471
7.263089828151313,7.706286759257311
7.283145771091005,5.276914705951389
7.303201714030696,4.40074773590663
7.323257656970387,4.460486392955136
7.343313599910078,4.779092563880503
7.363369542849769,6.471687846921514
7.383425485789461,7.945241387451336
7.403481428729153,9.558185127761005
7.423537371668844,11.151215982387841
7.443593314608536,13.361546293182572
7.4636492575482265,14.616058091201205
7.483705200487917,13.202243207719889
7.503761143427609,13.560675150010928
7.5238170863673,10.294961898025917
7.543873029306992,9.677662441858018
7.563928972246683,7.427506359697615
7.583984915186375,5.495956448462579
7.604040858126067,4.360921964540959
7.6240968010657575,4.082141564981263
7.644152744005448,4.40074773590663
7.664208686945139,3.1860617092536687
7.684264629884831,3.863099822470073
7.704320572824523,3.2258874806193396
7.724376515764214,3.146235937887998
7.744432458703906,3.70379673700739
7.764488401643597,3.7834482797387317
7.784544344583288,3.4449292231305293
7.804600287522979,3.146235937887998
7.82465623046267,4.281270421809618
7.844712173402362,3.5046678801790354
7.864768116342053,4.520225050003642
7.884824059281745,3.763535394055896
7.904880002221437,4.460486392955136
7.924935945161127,5.5756079911939205
7.944991888100819,6.611078046701363
7.9650478310405095,8.10454447291402
7.985103773980201,10.533916526219942
8.005159716919893,10.832609811462474
8.025215659859583,12.54511798018632
8.045271602799275,12.784072608380345
8.065327545738967,11.33043195353336
8.085383488678659,10.593655183268448
8.10543943161835,9.438707813663994
8.12549537455804,7.128813074455084
8.145551317497732,6.292471875775996
8.165607260437422,5.456130677096907
8.185663203377114,4.560050821369313
8.205719146316806,4.221531764761111
8.225775089256498,4.938395649343186
8.24583103219619,4.560050821369313
8.26588697513588,4.102054450664099
8.285942918075573,4.2613575361267815
8.305998861015263,3.8431869367872378
8.326054803954953,3.564406537227542
8.346110746894645,3.863099822470073
8.366166689834337,3.3652776803991875
8.386222632774029,2.6683266814999476
8.406278575713719,2.927194195376808
8.426334518653412,2.927194195376808
8.446390461593102,3.3254519090335166
8.466446404532793,3.4449292231305293
8.486502347472486,4.201618879078276
8.506558290412176,5.953952819167793
8.526614233351868,8.62227950066774
8.546670176291558,11.609212353093055
8.566726119231252,15.830744117854167
8.586782062170942,19.494715083495883
8.606838005110632,21.525829423145098
8.626893948050325,22.899818535260742
8.646949890990015,23.059121620723428
8.667005833929707,20.47044648195482
8.687061776869399,16.82638840199594
8.70711771980909,14.277539034593003
8.72717366274878,10.374613440757258
8.74722960568847,7.566896559477463
8.767285548628164,6.75046824648121
8.787341491567854,4.619789478417819
8.807397434507546,3.8830127081529087
8.827453377447238,3.8830127081529087
8.84750932038693,3.8232740511044025
8.86756526332662,4.360921964540959
8.887621206266312,4.599876592734984
8.907677149206004,3.9228384795185796
8.927733092145694,4.898569877977516
8.947789035085385,4.121967336346934
8.967844978025077,3.5046678801790354
8.98790092096477,2.927194195376808
9.00795686390446,2.688239567182783
9.028012806844151,2.8077168812797955
9.048068749783843,2.3098947392089095
9.068124692723533,2.7280653385484537
9.088180635663226,2.9471070810596434
9.108236578602916,3.0864972808394913
9.128292521542608,3.4449292231305293
9.148348464482298,3.9825771365670857
9.16840440742199,4.699441021149161
9.188460350361682,5.7747368480222745
9.208516293301372,5.635346648242426
9.228572236241066,6.352210532824502
9.248628179180756,6.790294017846882
9.268684122120447,6.392036304190173
9.28874006506014,5.714998190973768
9.30879600799983,5.197263163220047
9.328851950939521,4.082141564981263
9.348907893879211,3.942751365201415
9.368963836818905,3.2856261376678457
9.389019779758595,2.8873684240111372
9.409075722698287,2.7878039955969602
9.429131665637978,3.0864972808394913
9.44918760857767,2.8674555383283016
9.46924355151736,3.624145194276048
9.489299494457052,3.8431869367872378
9.509355437396744,4.420660621589465
9.529411380336434,5.31674047731706
9.549467323276126,5.257001820268553
9.569523266215818,5.934039933484958
9.58957920915551,5.018047192074528
9.6096351520952,5.057872963440199
9.629691095034891,4.639702364100655
9.649747037974583,4.0622286792984275
9.669802980914273,3.863099822470073
9.689858923853967,3.4847549944962
9.709914866793657,2.6285009101342767
9.729970809733349,2.3497205105745804
9.750026752673039,2.449284938988758
9.77008269561273,2.2501560821604034
9.790138638552422,2.1306787680633907
9.810194581492112,2.0709401110148846
9.830250524431806,2.0311143396492137
9.850306467371496,1.9315499112350365
9.870362410311188,2.0311143396492137
9.89041835325088,2.270068967843239
9.91047429619057,2.09085299669772
9.930530239130261,2.0510272253320494
9.950586182069951,2.3098947392089095
9.970642125009645,2.3895462819402513
9.990698067949335,2.1904174251118973
10.010754010889027,2.469197824671593
10.030809953828719,2.469197824671593
10.050865896768409,2.1505916537462264
10.0709218397081,2.8475426526454664
10.090977782647792,2.648413795817112
10.111033725587484,2.7081524528656185
10.131089668527174,2.3497205105745804
10.151145611466866,2.8674555383283016
10.171201554406558,2.409459167623087
10.191257497346248,2.6683266814999476
10.21131344028594,2.608588024451441
10.231369383225632,2.5289364817200997
10.251425326165323,2.9072813096939725
10.271481269105013,2.548849367402935
10.291537212044707,3.126323052205162
10.311593154984397,2.8077168812797955
10.331649097924087,2.270068967843239
10.35170504086378,2.688239567182783
10.37176098380347,2.608588024451441
10.391816926743163,2.1705045394290616
10.411872869682853,1.8917241398693658
10.431928812622546,2.548849367402935
10.451984755562236,2.3497205105745804
10.472040698501926,2.270068967843239
10.49209664144162,2.7479782242312893
10.51215258438131,2.8276297669626307
10.532208527321002,2.9072813096939725
10.552264470260694,3.4250163374476936
10.572320413200385,2.9471070810596434
10.592376356140075,2.449284938988758
10.612432299079767,2.6285009101342767
10.632488242019459,2.6285009101342767
10.65254418495915,2.6285009101342767
10.672600127898841,2.409459167623087
10.692656070838533,2.1505916537462264
10.712712013778225,2.449284938988758
10.732767956717915,2.688239567182783
10.752823899657608,2.0510272253320494
10.772879842597298,2.2899818535260743
10.792935785536988,2.509023596037264
10.81299172847668,2.270068967843239
10.833047671416372,2.6683266814999476
10.853103614356064,2.329807624891745
10.873159557295754,2.6683266814999476
10.893215500235447,2.6285009101342767
10.913271443175137,2.688239567182783
10.933327386114827,2.6285009101342767
10.953383329054521,2.449284938988758
10.973439271994211,2.548849367402935
