Energy (keV),Intensity (cps),slope,offset,liveTime
-0.017217458956643884,0.0,20.05594293969134,-17.217458956643885,49.766605377197266
0.002838483983047457,0.0
0.022894426922738798,0.0
0.042950369862430136,0.0
0.06300631280212149,0.0
0.08306225574181282,0.0
0.10311819868150417,0.0
0.12317414162119551,0.0
0.14323008456088684,0.0
0.16328602750057816,0.0
0.1833419704402695,0.0
0.20339791337996088,0.0
0.2234538563196522,0.0
0.24350979925934355,0.0
0.2635657421990349,0.0
0.2836216851387262,0.0
0.3036776280784176,0.0
0.32373357101810896,0.0
0.3437895139578002,0.0
0.3638454568974916,0.0
0.3839013998371829,0.0
0.4039573427768743,0.020093795677255364
0.42401328571656566,0.0
0.4440692286562569,0.020093795677255364
0.4641251715959483,0.10046897838627682
0.48418111453563967,0.22103175244980902
0.504237057475331,0.3215007308360858
0.5242930004150224,1.1453463536035557
0.5443489433547137,1.9089105893392597
0.5644048862944051,2.813131394815751
0.5844608292340963,4.199603296546371
0.6045167721737876,7.233766443811931
0.624572715113479,9.484271559664531
0.6446286580531704,12.417965728543816
0.6646846009928618,16.577381433735678
0.684740543932553,19.189574871778873
0.7047964868722444,23.509740942388778
0.7248524298119358,26.282684745850016
0.7449083727516271,28.171501539512022
0.7649643156913185,33.05429388908507
0.7850202586310097,33.37579461992116
0.805076201570701,34.72207893029727
0.8251321445103924,35.00339206977885
0.8451880874500838,35.28470520926042
0.8652440303897752,35.42536177900121
0.8852999733294665,34.179546447011376
0.9053559162691578,36.610895723959274
0.9254118592088492,38.31886835652598
0.9454678021485405,34.66179754326551
0.9655237450882319,37.555304120790275
0.9855796880279232,38.33896215220324
1.0056356309676144,35.82723769254631
1.0256915739073058,37.83661726027185
1.0457475168469974,37.31417857266321
1.0658034597866886,36.59080192828202
1.0858594027263797,37.434741346726746
1.1059153456660713,36.63098951963653
1.1259712886057625,36.28939499312319
1.146027231545454,34.259921629720395
1.1660831744851452,36.3295825844777
1.1861391174248366,36.28939499312319
1.206195060364528,34.32020301675216
1.2262510033042193,35.82723769254631
1.2463069462439107,34.78236031732904
1.266362889183602,35.98798805796436
1.2864188321232932,35.54592455306474
1.3064747750629846,33.41598221127567
1.326530718002676,34.32020301675216
1.3465866609423673,34.11926505997961
1.3666426038820587,34.0790774686251
1.3866985468217499,32.87344972798978
1.4067544897614415,32.9538249106988
1.4268104327011326,33.014106297730564
1.4468663756408242,35.00339206977885
1.4669223185805154,35.70667491848278
1.4869782615202065,35.244517617905906
1.507034204459898,36.651083315313784
1.5270901473995893,32.9538249106988
1.5471460903392809,32.79307454528075
1.567202033278972,31.145383299745816
1.5872579762186634,30.703319794846198
1.6073139191583548,31.6477281916772
1.6273698620980461,31.34632125651837
1.6474258050377375,31.94913512683603
1.6674817479774289,33.395888415598414
1.6875376909171202,37.37445995969498
1.7075936338568114,42.88015997526295
1.7276495767965028,44.76897676892495
1.7477055197361941,43.48297384558061
1.7677614626758855,38.47961872194402
1.787817405615577,35.28470520926042
1.8078733485552683,33.235138050180375
1.8279292914949594,31.38650884787288
1.847985234434651,31.20566468677758
1.8680411773743422,33.154762867471355
1.8880971203140335,31.326227460841114
1.908153063253725,31.868759944127007
1.928209006193416,31.808478557095242
1.9482649491331077,30.843976364586986
1.9683208920727988,31.788384761417987
1.9883768350124904,30.743507386200708
2.008432777952182,29.457504462856363
2.0284887208918727,29.879474172078726
2.0485446638315645,29.51778584988813
2.0686006067712555,29.65844241962892
2.088656549710947,28.975253366602235
2.1087124926506386,28.31215810925281
2.1287684355903296,28.814503001184192
2.148824378530021,28.151407743834767
2.1688803214697123,29.939755559110495
2.1889362644094037,27.146717959971998
2.208992207349095,28.975253366602235
2.2290481502887864,28.452814678993597
2.249104093228478,29.015440957956745
2.269160036168169,28.975253366602235
2.28921597910786,29.156097527697533
2.309271922047552,27.468218690808083
2.3293278649872433,28.573377453057127
2.3493838079269342,27.026155185908465
2.3694397508666256,28.432720883316343
2.389495693806317,25.077057005214694
2.409551636746009,27.126624164294743
2.4296075796856997,26.463528906945314
2.449663522625391,25.559308101468822
2.4697194655650825,24.936400435473907
2.4897754085047734,24.474243134897034
2.5098313514444652,25.298088757664505
2.5298872943841566,23.730772694838585
2.549943237323848,25.036869413860185
2.569999180263539,25.57940189714608
2.5900551232032303,23.75086649051584
2.610111066142922,25.077057005214694
2.6301670090826135,24.474243134897034
2.6502229520223044,23.10786502884367
2.6702788949619958,22.947114663425626
2.690334837901687,24.072367221351925
2.7103907808413785,23.30880298561622
2.73044672378107,22.4648635671715
2.7505026667207613,23.71067889916133
2.7705586096604526,23.32889678129348
2.7906145526001436,23.570022329420542
2.8106704955398354,23.67049130780682
2.8307264384795268,22.484957362848753
2.850782381419218,22.143362836335413
2.870838324358909,23.71067889916133
2.8908942672986004,23.690585103484075
2.9109502102382923,23.93171065161114
2.931006153177983,23.951804447288396
2.9510620961176746,25.01677561818293
2.971118039057366,25.981277810691186
2.9911739819970573,24.735462478701354
3.0112299249367487,22.826551889362094
3.03128586787644,22.1031752449809
3.0513418108161314,21.620924148726772
3.0713977537558224,21.35970480492245
3.0914536966955137,19.933045311837322
3.1115096396352055,21.520455170340494
3.131565582574897,20.254546042673407
3.151621525514588,20.897547504345578
3.1716774684542792,21.259235826536177
3.1917334113939706,21.46017378330873
3.2117893543336624,22.826551889362094
3.2318452972733533,26.624279272363356
3.2519012402130447,31.969228922513285
3.271957183152736,39.12262018361619
3.2920131260924275,47.140044658841084
3.312069069032119,48.22510962541288
3.33212501197181,46.115261079301064
3.3521809549115016,41.31284391243703
3.3722368978511925,32.592136588508204
3.3922928407908843,23.93171065161114
3.4123487837305757,21.560642761695007
3.432404726670267,17.82319676572551
3.452460669609958,18.888167936620043
3.4725166125496494,17.501696034889424
3.492572555489341,17.923665744111783
3.512628498429032,19.06901209771534
3.5326844413687235,20.837266117313813
3.552740384308415,23.97189824296565
3.5727963272481063,27.689250443257894
3.5928522701877976,35.70667491848278
3.612908213127489,55.35840709083853
3.6329641560671804,82.94718855571014
3.6530200990068717,115.01688645660971
3.6730760419465627,142.92716865231742
3.6931319848862545,148.17164932408105
3.713187927825946,135.2312449079286
3.733243870765637,106.79852402461226
3.753299813705328,72.61897757760089
3.7733557566450195,45.130665091115546
3.7934116995847114,31.00472673000503
3.8134676425244023,19.490981806937704
3.8335235854640937,16.37644347696312
3.853579528403785,15.713348219613696
3.873635471343476,15.492316467163887
3.893691414283168,15.150721940650545
3.913747357222859,17.843290561402764
3.9338033001625505,20.355015021059685
3.9538592431022415,22.886833276393862
3.973915186041933,30.221068698592067
3.9939711289816247,32.91363731934429
4.014027071921316,34.92301688706982
4.034083014861007,31.065008117036793
4.054138957800698,28.493002270348107
4.074194900740389,22.444769771494244
4.094250843680081,19.269950054487893
4.114306786619773,16.41663106831763
4.134362729559464,13.965187995692478
4.154418672499155,13.30209273834305
4.174474615438847,11.172150396553983
4.1945305583785375,11.513744923067325
4.214586501318229,10.730086891654365
4.234642444257921,11.634307697130856
4.254698387197612,12.016089814998708
4.274754330137304,11.31280696629477
4.294810273076994,11.23243178358575
4.314866216016686,12.277309158803028
4.334922158956378,11.614213901453601
4.3549781018960685,11.614213901453601
4.37503404483576,12.88012302912069
4.395089987775451,14.628283253041905
4.415145930715143,18.908261732297298
4.435201873654834,24.434055543542524
4.455257816594525,31.486977826259157
4.475313759534217,38.399243539235
4.495369702473908,43.00072274932648
4.5154256454135995,43.161473114744524
4.535481588353291,37.37445995969498
4.555537531292982,32.08979169657682
4.575593474232673,25.69996467120961
4.595649417172364,20.93773509570009
4.615705360112056,19.37041903287417
4.635761303051748,18.42601063604317
4.655817245991439,17.16010150837608
4.6758731889311305,14.748846027105438
4.695929131870821,14.668470844396417
4.715985074810512,13.382467921052072
4.736041017750204,12.317496750157538
4.756096960689895,10.870743461395152
4.776152903629587,11.192244192231238
4.796208846569278,12.458153319898326
4.81626478950897,12.598809889639114
4.8363207324486615,14.668470844396417
4.856376675388352,14.407251500592096
4.876432618328043,14.568001866010139
4.896488561267734,15.914286176386248
4.916544504207426,17.300758078116868
4.936600447147118,15.77362960664546
4.956656390086809,14.94978398387799
4.976712333026501,12.980592007506965
4.9967682759661916,10.689899300299855
5.0168242189058825,10.207648204045725
5.036880161845574,8.53986316283353
5.056936104785265,8.218362431997445
5.076992047724957,8.218362431997445
5.097047990664648,7.9169554968386135
5.11710393360434,8.58005075418804
5.137159876544032,7.7963927227750816
5.157215819483722,7.354329217875463
5.1772717624234135,8.01742447522489
5.197327705363104,7.695923744388804
5.217383648302796,8.780988710960594
5.237439591242488,7.997330679547635
5.257495534182179,8.58005075418804
5.277551477121871,8.720707323928828
5.297607420061561,8.640332141219806
5.317663363001253,7.957143088193124
5.3377193059409445,8.720707323928828
5.357775248880635,9.785678494823362
5.377831191820327,9.725397107791597
5.397887134760018,10.669805504622598
5.41794307769971,9.765584699146107
5.437999020639402,10.448773752172789
5.458054963579092,9.122583237473936
5.478110906518784,8.117893453611167
5.498166849458475,7.615548561679783
5.518222792398166,7.213672648134676
5.538278735337858,6.550577390785249
5.558334678277549,6.711327756203292
5.578390621217241,5.907575929113078
5.598446564156931,5.706637972340523
5.618502507096623,5.787013155049545
5.638558450036315,6.02813870317661
5.6586143929760055,5.023448919313841
5.678670335915697,5.023448919313841
5.698726278855388,5.545887606922481
5.71878222179508,5.525793811245225
5.738838164734771,5.666450380986013
5.758894107674462,6.9926408956848665
5.778950050614154,8.720707323928828
5.799005993553845,10.589430321913577
5.8190619364935365,15.1708157363278
5.839117879433228,18.38582304468866
5.859173822372919,23.951804447288396
5.87922976531261,27.448124895130828
5.899285708252301,27.428031099453573
5.919341651191993,25.257901166309992
5.939397594131685,21.76158071846756
5.959453537071376,18.184885087916104
5.9795094800110675,12.96049821182971
5.9995654229507585,10.127273021336704
6.01962136589045,8.218362431997445
6.039677308830141,6.771609143235058
6.059733251769832,5.9276697247903325
6.079789194709524,6.289358046980929
6.099845137649215,6.771609143235058
6.119901080588907,6.430014616721716
6.1399570235285985,7.736111335743315
6.160012966468289,9.002020463410403
6.18006890940798,11.192244192231238
6.200124852347671,16.054942746127036
6.220180795287363,29.2163789147293
6.240236738227055,62.210391416782606
6.260292681166746,129.2432937961065
6.280348624106438,261.8221576746374
6.300404567046129,475.7005188633435
6.3204605099858195,797.0605931296885
6.340516452925511,1181.0731223177158
6.360572395865202,1567.356250417273
6.380628338804894,1862.0116702285457
6.400684281744585,1955.8898836326828
6.420740224684277,1857.8522545233538
6.440796167623969,1558.1733857927672
6.460852110563659,1165.6812748289383
6.4809080535033505,780.885087609498
6.500963996443042,466.376997669097
6.521019939382733,255.95476933687883
6.541075882322425,126.5909127667088
6.561131825262116,59.81922973118922
6.581187768201808,28.332251904930065
6.6012437111415,15.371753693100354
6.62129965408119,10.288023386754746
6.6413555970208815,8.559956958510785
6.6614115399605724,7.3342354221982085
6.681467482900264,7.655736153034294
6.701523425839956,7.816486518452336
6.721579368779647,7.957143088193124
6.741635311719339,8.35901900173823
6.761691254659029,7.997330679547635
6.781747197598721,8.961832872055892
6.8018031405384125,9.082395646119425
6.821859083478103,10.127273021336704
6.841915026417795,10.971212439781429
6.861970969357486,15.512410262841142
6.882026912297178,20.576046773509493
6.902082855236869,30.3416314726556
6.92213879817656,47.361076411290895
6.942194741116252,76.83867466982451
6.962250684055943,118.49311310877488
6.982306626995634,175.76043078895268
7.002362569935326,238.83485541985726
7.022418512875017,290.97825520233494
7.042474455814709,330.90462721304135
7.062530398754399,330.643407869237
7.082586341694091,304.7224114455776
7.102642284633783,255.95476933687883
7.122698227573474,187.65595782988785
7.142754170513165,129.7054510966834
7.162810113452856,79.67189986031752
7.182866056392548,46.13535487497832
7.202921999332239,24.253211382447226
7.22297794227193,12.518434706930092
7.243033885211622,7.133297465425654
7.263089828151313,5.1038241020228625
7.283145771091005,3.797727383001264
7.303201714030696,3.5365080391969443
7.323257656970387,3.0542569429428155
7.343313599910078,3.2551948997153692
7.363369542849769,3.5566018348741997
7.383425485789461,3.8379149743557748
7.403481428729153,4.058946726805583
7.423537371668844,4.601479210091479
7.443593314608536,4.902886145250309
7.4636492575482265,5.144011693377373
7.483705200487917,4.742135779832266
7.503761143427609,4.882792349573053
7.5238170863673,4.300072274932648
7.543873029306992,3.415945265133412
7.563928972246683,3.014069351588305
7.583984915186375,3.1145383299745815
7.604040858126067,3.3154762867471352
7.6240968010657575,3.235101104038114
7.644152744005448,2.6724748250749637
7.664208686945139,2.7930375991384957
7.684264629884831,3.094444534297326
7.704320572824523,2.953787964556539
7.724376515764214,2.7729438034612404
7.744432458703906,3.2752886953926246
7.764488401643597,3.1748197170063475
7.784544344583288,3.355663878101646
7.804600287522979,3.194913512683603
7.82465623046267,3.2551948997153692
7.844712173402362,3.85800877003303
7.864768116342053,3.85800877003303
7.884824059281745,4.641666801445989
7.904880002221437,5.304762058795416
7.924935945161127,5.24448067176365
7.944991888100819,7.535173378970762
7.9650478310405095,9.142677033151191
7.985103773980201,10.850649665717897
8.005159716919893,14.025469382724244
8.025215659859583,15.391847488777609
8.045271602799275,16.17550552019057
8.065327545738967,14.00537558704699
8.085383488678659,13.00068580318422
8.10543943161835,11.172150396553983
8.12549537455804,9.042208054764915
8.145551317497732,6.389827025367206
8.165607260437422,3.918290157064796
8.185663203377114,3.6168832219059657
8.205719146316806,2.873412781847517
8.225775089256498,2.973881760233794
8.24583103219619,2.190223728820835
8.26588697513588,2.3911616855933886
8.285942918075573,2.4916306639796653
8.305998861015263,2.873412781847517
8.326054803954953,2.7327562121067297
8.346110746894645,2.9136003732020277
8.366166689834337,2.6121934380431973
8.386222632774029,3.2551948997153692
8.406278575713719,2.2906927072071115
8.426334518653412,2.692568620752219
8.446390461593102,2.7729438034612404
8.466446404532793,3.3154762867471352
8.486502347472486,3.9986653397738174
8.506558290412176,4.802417166864032
8.526614233351868,6.470202208076228
8.546670176291558,8.901551485024127
8.566726119231252,11.31280696629477
8.586782062170942,13.623593469179138
8.606838005110632,14.668470844396417
8.626893948050325,16.677850412121952
8.646949890990015,16.014755154772526
8.667005833929707,15.090440553618778
8.687061776869399,12.739466459379901
8.70711771980909,10.107179225659449
8.72717366274878,7.7963927227750816
8.74722960568847,6.349639434012695
8.767285548628164,5.24448067176365
8.787341491567854,4.018759135451073
8.807397434507546,3.5967894262287103
8.827453377447238,3.7374459959694977
8.84750932038693,4.842604758218543
8.86756526332662,5.284668263118161
8.887621206266312,4.822510962541288
8.907677149206004,5.24448067176365
8.927733092145694,4.6818543928005
8.947789035085385,4.501010231705202
8.967844978025077,3.8781025657102854
8.98790092096477,3.9383839527420514
9.00795686390446,3.03416314726556
9.028012806844151,2.973881760233794
9.048068749783843,2.4916306639796653
9.068124692723533,2.270598911529856
9.088180635663226,2.310786502884367
9.108236578602916,2.9939755559110495
9.128292521542608,3.7173522002922423
9.148348464482298,4.501010231705202
9.16840440742199,4.802417166864032
9.188460350361682,5.545887606922481
9.208516293301372,6.06832629453112
9.228572236241066,7.173485056780165
9.248628179180756,7.193578852457421
9.268684122120447,6.389827025367206
9.28874006506014,6.188889068594652
9.30879600799983,4.842604758218543
9.328851950939521,4.782323371186777
9.348907893879211,3.7173522002922423
9.368963836818905,3.2551948997153692
9.389019779758595,2.8533189861702617
9.409075722698287,2.4313492769478993
9.429131665637978,2.270598911529856
9.44918760857767,2.330880298561622
9.46924355151736,2.8533189861702617
9.489299494457052,3.355663878101646
9.509355437396744,3.2752886953926246
9.529411380336434,4.018759135451073
9.549467323276126,4.219697092223627
9.569523266215818,4.259884683578138
9.58957920915551,4.11922811383735
9.6096351520952,4.018759135451073
9.629691095034891,3.8781025657102854
9.649747037974583,3.85800877003303
9.669802980914273,3.6570708132604763
9.689858923853967,2.813131394815751
9.709914866793657,2.1098485461118135
9.729970809733349,2.592099642365942
9.750026752673039,2.270598911529856
9.77008269561273,2.5720058466886866
9.790138638552422,2.652381029397708
9.810194581492112,2.310786502884367
9.830250524431806,2.5117244596569206
9.850306467371496,1.9089105893392597
9.870362410311188,2.1701299331435795
9.89041835325088,2.250505115852601
9.91047429619057,2.270598911529856
9.930530239130261,2.0093795677255364
9.950586182069951,2.049567159080047
9.970642125009645,1.9089105893392597
9.990698067949335,1.929004385016515
10.010754010889027,2.1701299331435795
10.030809953828719,1.7682540195984722
10.050865896768409,2.1701299331435795
10.0709218397081,1.9490981806937704
10.090977782647792,2.049567159080047
10.111033725587484,2.190223728820835
10.131089668527174,2.371067889916133
10.151145611466866,2.3509740942388775
10.171201554406558,2.5117244596569206
10.191257497346248,2.3911616855933886
10.21131344028594,2.7327562121067297
10.231369383225632,3.154725921329092
10.251425326165323,2.7930375991384957
10.271481269105013,2.813131394815751
10.291537212044707,2.531818255334176
10.311593154984397,2.592099642365942
10.331649097924087,2.7126624164294744
10.35170504086378,2.250505115852601
10.37176098380347,2.4313492769478993
10.391816926743163,2.7327562121067297
10.411872869682853,2.752850007783985
10.431928812622546,3.1145383299745815
10.451984755562236,3.516414243519689
10.472040698501926,4.1594157051918605
10.49209664144162,4.822510962541288
10.51215258438131,4.822510962541288
10.532208527321002,5.123917897700118
10.552264470260694,5.646356585308758
10.572320413200385,4.902886145250309
10.592376356140075,4.9832613279593305
10.612432299079767,4.38044745764167
10.632488242019459,3.9383839527420514
10.65254418495915,2.7126624164294744
10.672600127898841,2.47153686830241
10.692656070838533,2.8533189861702617
10.712712013778225,2.4916306639796653
10.732767956717915,2.592099642365942
10.752823899657608,2.7126624164294744
10.772879842597298,1.929004385016515
10.792935785536988,2.692568620752219
10.81299172847668,1.9089105893392597
10.833047671416372,2.6121934380431973
10.853103614356064,2.8533189861702617
10.873159557295754,2.4313492769478993
10.893215500235447,2.8332251904930064
10.913271443175137,2.7729438034612404
10.933327386114827,2.652381029397708
10.953383329054521,2.752850007783985
10.973439271994211,2.592099642365942
