Energy (keV),Intensity (cps),slope,offset,liveTime
-0.017217458956643884,0.0,20.05594293969134,-17.217458956643885,48.99781799316406
0.002838483983047457,0.0
0.022894426922738798,0.0
0.042950369862430136,0.0
0.06300631280212149,0.0
0.08306225574181282,0.0
0.10311819868150417,0.0
0.12317414162119551,0.0
0.14323008456088684,0.0
0.16328602750057816,0.0
0.1833419704402695,0.0
0.20339791337996088,0.0
0.2234538563196522,0.0
0.24350979925934355,0.0
0.2635657421990349,0.0
0.2836216851387262,0.0
0.3036776280784176,0.0
0.32373357101810896,0.0
0.3437895139578002,0.0
0.3638454568974916,0.0
0.3839013998371829,0.020409072096629184
0.4039573427768743,0.0
0.42401328571656566,0.0
0.4440692286562569,0.04081814419325837
0.4641251715959483,0.08163628838651674
0.48418111453563967,0.224499793062921
0.504237057475331,0.5918630908022463
0.5242930004150224,1.2857715420876386
0.5443489433547137,1.9388618491797724
0.5644048862944051,3.2450424633640402
0.5844608292340963,5.632903898669655
0.6045167721737876,8.77590100155055
0.624572715113479,12.449533978943801
0.6446286580531704,14.837395414249416
0.6646846009928618,18.77634632889885
0.684740543932553,22.429570234195474
0.7047964868722444,25.98074877900895
0.7248524298119358,31.04219865897299
0.7449083727516271,33.34842380589208
0.7649643156913185,35.14442215039546
0.7850202586310097,38.47110090214601
0.805076201570701,39.59359986746062
0.8251321445103924,39.63441801165387
0.8451880874500838,40.756916976968476
0.8652440303897752,43.04273305179095
0.8852999733294665,43.26723284485387
0.9053559162691578,41.67532522131679
0.9254118592088492,43.57336892630331
0.9454678021485405,44.30809552178196
0.9655237450882319,45.10404933355049
0.9855796880279232,42.63455160985836
1.0056356309676144,42.61414253776174
1.0256915739073058,43.87950500775275
1.0457475168469974,42.53250624937522
1.0658034597866886,43.920323151946
1.0858594027263797,44.55300438694151
1.1059153456660713,43.920323151946
1.1259712886057625,41.55287078873702
1.146027231545454,41.16509841890106
1.1660831744851452,42.3080064563123
1.1861391174248366,42.73659697034151
1.206195060364528,42.5937334656651
1.2262510033042193,41.65491614922016
1.2463069462439107,41.49164357244713
1.266362889183602,40.06300852568309
1.2864188321232932,39.185418425528034
1.3064747750629846,38.85887327198196
1.326530718002676,40.06300852568309
1.3465866609423673,40.0017813093932
1.3666426038820587,40.409962751325786
1.3866985468217499,37.838419667150504
1.4067544897614415,39.26705471391455
1.4268104327011326,39.94055409310331
1.4468663756408242,40.593644400195444
1.4669223185805154,40.165053886166234
1.4869782615202065,40.51200811180893
1.507034204459898,39.36910007439769
1.5270901473995893,37.77719245086062
1.5471460903392809,38.34864646956623
1.567202033278972,37.838419667150504
1.5872579762186634,36.51182998086961
1.6073139191583548,37.613919874087586
1.6273698620980461,36.40978462038646
1.6474258050377375,34.777058852656126
1.6674817479774289,39.614008939557245
1.6875376909171202,46.49186623612128
1.7075936338568114,50.4920443670606
1.7276495767965028,54.635086002676324
1.7477055197361941,53.32890538849205
1.7677614626758855,48.16541014804487
1.787817405615577,43.26723284485387
1.8078733485552683,37.71596523457073
1.8279292914949594,38.634373478919045
1.847985234434651,34.98114957362242
1.8680411773743422,37.04246585538197
1.8880971203140335,36.45060276457972
1.908153063253725,36.083239466840396
1.928209006193416,35.1036040062022
1.9482649491331077,35.797512457487585
1.9683208920727988,35.30769472716849
1.9883768350124904,34.96074050152579
2.008432777952182,36.00160317845388
2.0284887208918727,34.73624070846287
2.0485446638315645,35.12401307829882
2.0686006067712555,34.08315040137074
2.088656549710947,33.123924012829164
2.1087124926506386,33.328014733795456
2.1287684355903296,32.430015561543776
2.148824378530021,31.69528896606512
2.1688803214697123,33.02187865234602
2.1889362644094037,31.940197831224673
2.208992207349095,30.53197185655726
2.2290481502887864,32.26674298477074
2.249104093228478,32.04224319170782
2.269160036168169,32.9402423639595
2.28921597910786,32.59328813831681
2.309271922047552,30.144199486721305
2.3293278649872433,31.53201638929209
2.3493838079269342,30.776880721716807
2.3694397508666256,31.04219865897299
2.389495693806317,30.51156278446063
2.409551636746009,30.409517423977483
2.4296075796856997,30.287062991397708
2.449663522625391,30.75647164962018
2.4697194655650825,30.654426289137035
2.4897754085047734,30.062563198334786
2.5098313514444652,29.47070010753254
2.5298872943841566,29.389063819146024
2.549943237323848,28.695155367860632
2.569999180263539,29.062518665599956
2.5900551232032303,28.164519493348273
2.610111066142922,28.77679165624715
2.6301670090826135,28.613519079474116
2.6502229520223044,27.30733846528985
2.6702788949619958,28.75638258415052
2.690334837901687,26.858338879164005
2.7103907808413785,28.654337223667373
2.73044672378107,27.164474960613443
2.7505026667207613,27.144065888516813
2.7705586096604526,25.939930634815692
2.7906145526001436,26.572611869811197
2.8106704955398354,26.77670259077749
2.8307264384795268,27.633883618835913
2.850782381419218,26.2256576441685
2.870838324358909,26.2256576441685
2.8908942672986004,27.123656816420183
2.9109502102382923,29.53192732382243
2.931006153177983,27.858383411898835
2.9510620961176746,27.042020528033667
2.971118039057366,27.98083784447861
2.9911739819970573,28.51147371899097
3.0112299249367487,25.368476616110076
3.03128586787644,23.899023425152773
3.0513418108161314,23.939841569346033
3.0713977537558224,23.082660541287606
3.0914536966955137,22.286706729519068
3.1115096396352055,23.16429682967412
3.131565582574897,23.878614353056143
3.151621525514588,22.49079745048536
3.1716774684542792,23.388796622737043
3.1917334113939706,26.695066302390973
3.2117893543336624,28.103292277058387
3.2318452972733533,36.51182998086961
3.2519012402130447,45.512230775483076
3.271957183152736,65.28862163711676
3.2920131260924275,78.5341094278291
3.312069069032119,84.65683105681785
3.33212501197181,81.12606158410101
3.3521809549115016,64.73757669050777
3.3722368978511925,50.1450901414179
3.3922928407908843,35.18524029458871
3.4123487837305757,27.633883618835913
3.432404726670267,22.368343017905584
3.452460669609958,20.42948116872581
3.4725166125496494,19.96007251050334
3.492572555489341,20.96011704323817
3.512628498429032,22.71529724354828
3.5326844413687235,25.388885688206702
3.552740384308415,25.71543084175277
3.5727963272481063,28.184928565444903
3.5928522701877976,28.327792070121305
3.612908213127489,29.53192732382243
3.6329641560671804,32.49124277783366
3.6530200990068717,31.776925254451637
3.6730760419465627,31.287107524132537
3.6931319848862545,31.409561956712313
3.713187927825946,29.674790828498832
3.733243870765637,25.348067544013446
3.753299813705328,21.715252710813452
3.7733557566450195,19.143709626638174
3.7934116995847114,18.368164886966266
3.8134676425244023,17.837529012453906
3.8335235854640937,16.00071252375728
3.853579528403785,14.572077476993236
3.873635471343476,15.429258505051664
3.893691414283168,16.163985100530315
3.913747357222859,16.04153066795054
3.9338033001625505,15.75580365859773
3.9538592431022415,16.102757884240425
3.973915186041933,16.592575614559525
3.9939711289816247,16.06193974004717
4.014027071921316,16.878302623912333
4.034083014861007,16.286439533110087
4.054138957800698,14.7557591258629
4.074194900740389,15.26598592827863
4.094250843680081,14.531259332799978
4.114306786619773,13.898578097804474
4.134362729559464,14.73535005376627
4.154418672499155,13.592442016355037
4.174474615438847,13.653669232644924
4.1945305583785375,13.939396241997732
4.214586501318229,13.959805314094362
4.234642444257921,13.286305934905599
4.254698387197612,13.000578925552789
4.274754330137304,12.184216041687623
4.294810273076994,12.26585233007414
4.314866216016686,12.612806555716835
4.334922158956378,10.9800807879865
4.3549781018960685,12.204625113784251
4.37503404483576,11.980125320721331
4.395089987775451,12.184216041687623
4.415145930715143,12.959760781359531
4.435201873654834,12.53117026733032
4.455257816594525,14.347577683930316
4.475313759534217,14.061850674577506
4.495369702473908,14.388395828123574
4.5154256454135995,14.265941395543798
4.535481588353291,14.592486549089866
4.555537531292982,13.143442430229195
4.575593474232673,12.388306762653915
4.595649417172364,11.184171508952792
4.615705360112056,12.061761609107847
4.635761303051748,12.327079546364027
4.655817245991439,11.796443671851668
4.6758731889311305,10.184126976217962
4.695929131870821,11.02089893217976
4.715985074810512,10.020854399444929
4.736041017750204,9.408582236546053
4.756096960689895,9.510627597029199
4.776152903629587,9.388173164449425
4.796208846569278,8.816719145743807
4.81626478950897,9.347355020256167
4.8363207324486615,9.694309245898863
4.856376675388352,9.796354606382009
4.876432618328043,9.531036669125829
4.896488561267734,9.837172750575267
4.916544504207426,8.592219352680885
4.936600447147118,9.102446155096615
4.956656390086809,9.041218938806729
4.976712333026501,9.306536876062907
4.9967682759661916,8.653446568970773
5.0168242189058825,8.816719145743807
5.036880161845574,8.551401208487627
5.056936104785265,7.081948017530326
5.076992047724957,8.02076533397527
5.097047990664648,7.592174819946056
5.11710393360434,8.877946362033695
5.137159876544032,7.449311315269652
5.157215819483722,7.551356675752798
5.1772717624234135,6.714584719791001
5.197327705363104,7.428902243173023
5.217383648302796,7.796265540912348
5.237439591242488,7.918719973492123
5.257495534182179,7.306447810593248
5.277551477121871,6.857448224467405
5.297607420061561,7.020720801240439
5.317663363001253,7.286038738496618
5.3377193059409445,9.061628010903357
5.357775248880635,8.816719145743807
5.377831191820327,8.898355434130323
5.397887134760018,9.775945534285379
5.41794307769971,9.326945948159537
5.437999020639402,7.469720387366281
5.458054963579092,8.673855641067403
5.478110906518784,7.265629666399989
5.498166849458475,7.49012945946291
5.518222792398166,6.3676304941483055
5.538278735337858,6.673766575597743
5.558334678277549,6.102312556892126
5.578390621217241,6.00026719640898
5.598446564156931,5.163495240447183
5.618502507096623,5.653312970766284
5.638558450036315,5.469631321896621
5.6586143929760055,5.183904312543812
5.678670335915697,5.75535833124943
5.698726278855388,5.408404105606734
5.71878222179508,5.592085754476396
5.738838164734771,6.4084486383415635
5.758894107674462,7.347265954786506
5.778950050614154,9.71471831799549
5.799005993553845,13.46998758377526
5.8190619364935365,18.28652859857975
5.839117879433228,24.164341362408955
5.859173822372919,31.69528896606512
5.87922976531261,36.49142090877298
5.899285708252301,38.36905554166287
5.919341651191993,35.879148745874105
5.939397594131685,30.062563198334786
5.959453537071376,21.613207350330306
5.9795094800110675,16.388484893593233
5.9995654229507585,11.327035013629196
6.01962136589045,8.286083271231448
6.039677308830141,5.551267610283138
6.059733251769832,5.122677096253925
6.079789194709524,4.714495654321341
6.099845137649215,4.4899958612584205
6.119901080588907,4.5716321496449375
6.1399570235285985,4.6124502938381955
6.160012966468289,4.7553137985145995
6.18006890940798,5.122677096253925
6.200124852347671,6.204357917375272
6.220180795287363,8.163628838651674
6.240236738227055,12.898533565069643
6.260292681166746,24.470477443858393
6.280348624106438,46.49186623612128
6.300404567046129,80.86074364684482
6.3204605099858195,132.82224120486273
6.340516452925511,199.11090737471432
6.360572395865202,262.93007582087375
6.380628338804894,310.6464863827928
6.400684281744585,325.50429086913886
6.420740224684277,310.6668954548894
6.440796167623969,258.4808981038086
6.460852110563659,199.62113417713005
6.4809080535033505,136.6387376869324
6.500963996443042,86.3711931129347
6.521019939382733,45.165276549840385
6.541075882322425,27.45020196996625
6.561131825262116,13.959805314094362
6.581187768201808,8.367719559617965
6.6012437111415,5.428813177703363
6.62129965408119,4.4899958612584205
6.6413555970208815,4.5104049333550496
6.6614115399605724,4.367541428678646
6.681467482900264,3.2450424633640402
6.701523425839956,3.857314626262916
6.721579368779647,3.5307694727168486
6.741635311719339,3.367496895943815
6.761691254659029,4.204268851905612
6.781747197598721,3.6124057611033655
6.8018031405384125,3.9185418425528034
6.821859083478103,3.796087409973028
6.841915026417795,4.4695867891617915
6.861970969357486,4.694086582224712
6.882026912297178,5.734949259152801
6.902082855236869,7.469720387366281
6.92213879817656,9.408582236546053
6.942194741116252,14.919031702635934
6.962250684055943,21.633616422426936
6.982306626995634,31.327925668325797
7.002362569935326,42.10391573534601
7.022418512875017,49.34913632964937
7.042474455814709,55.2473581655752
7.062530398754399,56.8596748612089
7.082586341694091,53.75749590252127
7.102642284633783,43.20600562856398
7.122698227573474,34.32805926653029
7.142754170513165,23.22552404596401
7.162810113452856,16.266030461013457
7.182866056392548,9.694309245898863
7.202921999332239,6.204357917375272
7.22297794227193,3.979769058842691
7.243033885211622,3.775678337876399
7.263089828151313,2.796042877238198
7.283145771091005,2.469497723692131
7.303201714030696,2.9184973098179734
7.323257656970387,2.449088651595502
7.343313599910078,2.877679165624715
7.363369542849769,3.2654515354606692
7.383425485789461,3.653223905296624
7.403481428729153,3.3266787517505567
7.423537371668844,3.0613608144943774
7.443593314608536,3.367496895943815
7.4636492575482265,3.3062696796539277
7.483705200487917,3.367496895943815
7.503761143427609,3.1838152470741528
7.5238170863673,2.8368610214314565
7.543873029306992,2.8572700935280855
7.563928972246683,2.9593154540112314
7.583984915186375,3.0409517423977483
7.604040858126067,2.3674523632089852
7.6240968010657575,2.6123612283685356
7.644152744005448,2.693997516755052
7.664208686945139,2.551134012078648
7.684264629884831,3.3266787517505567
7.704320572824523,3.0409517423977483
7.724376515764214,3.4287241122337027
7.744432458703906,3.2858606075572987
7.764488401643597,3.367496895943815
7.784544344583288,3.796087409973028
7.804600287522979,3.4083150401370736
7.82465623046267,3.4287241122337027
7.844712173402362,3.653223905296624
7.864768116342053,3.694042049489882
7.884824059281745,4.00017813093932
7.904880002221437,4.061405347229208
7.924935945161127,4.877768231094374
7.944991888100819,5.408404105606734
7.9650478310405095,5.816585547539317
7.985103773980201,6.959493584950551
8.005159716919893,7.694220180429202
8.025215659859583,7.939129045588753
8.045271602799275,8.061583478168528
8.065327545738967,7.143175233820214
8.085383488678659,7.204402450110102
8.10543943161835,6.102312556892126
8.12549537455804,4.5104049333550496
8.145551317497732,4.24508699609887
8.165607260437422,3.551178544813478
8.185663203377114,3.2246333912674108
8.205719146316806,2.673588444658423
8.225775089256498,3.0409517423977483
8.24583103219619,2.9593154540112314
8.26588697513588,2.653179372561794
8.285942918075573,3.367496895943815
8.305998861015263,2.347043291112356
8.326054803954953,2.8164519493348275
8.346110746894645,2.75522473304494
8.366166689834337,3.0613608144943774
8.386222632774029,3.367496895943815
8.406278575713719,3.5103604006202196
8.426334518653412,3.00013359820449
8.446390461593102,3.0205426703011193
8.466446404532793,3.081769886591007
8.486502347472486,3.9185418425528034
8.506558290412176,4.4899958612584205
8.526614233351868,5.061449879964037
8.546670176291558,6.122721628988755
8.566726119231252,7.592174819946056
8.586782062170942,8.326901415424707
8.606838005110632,10.429035841377512
8.626893948050325,10.265763264604479
8.646949890990015,10.4902630576674
8.667005833929707,8.816719145743807
8.687061776869399,8.184037910748302
8.70711771980909,6.612539359307855
8.72717366274878,5.122677096253925
8.74722960568847,5.081858952060666
8.767285548628164,3.8164964820696574
8.787341491567854,3.591996689006736
8.807397434507546,3.6328148331999945
8.827453377447238,3.2858606075572987
8.84750932038693,3.591996689006736
8.86756526332662,3.6328148331999945
8.887621206266312,3.857314626262916
8.907677149206004,3.9593599867460614
8.927733092145694,3.8164964820696574
8.947789035085385,3.857314626262916
8.967844978025077,3.2246333912674108
8.98790092096477,3.2654515354606692
9.00795686390446,3.3062696796539277
9.028012806844151,2.4082705074022437
9.048068749783843,2.551134012078648
9.068124692723533,2.775633805141569
9.088180635663226,3.469542256426961
9.108236578602916,3.081769886591007
9.128292521542608,4.122632563519095
9.148348464482298,4.143041635615724
9.16840440742199,5.51044946608988
9.188460350361682,6.4900849267280805
9.208516293301372,8.102401622361786
9.228572236241066,8.184037910748302
9.248628179180756,7.898310901395494
9.268684122120447,7.428902243173023
9.28874006506014,7.020720801240439
9.30879600799983,6.694175647694372
9.328851950939521,5.2451315288337
9.348907893879211,4.6124502938381955
9.368963836818905,3.1634061749775233
9.389019779758595,3.591996689006736
9.409075722698287,2.3674523632089852
9.429131665637978,2.3674523632089852
9.44918760857767,2.5103158678853896
9.46924355151736,2.4082705074022437
9.489299494457052,2.7348156609483105
9.509355437396744,3.1838152470741528
9.529411380336434,3.4287241122337027
9.549467323276126,3.3266787517505567
9.569523266215818,3.5103604006202196
9.58957920915551,3.551178544813478
9.6096351520952,3.591996689006736
9.629691095034891,3.081769886591007
9.649747037974583,3.3879059680404446
9.669802980914273,3.0205426703011193
9.689858923853967,3.4899513285235906
9.709914866793657,2.7144065888516815
9.729970809733349,2.877679165624715
9.750026752673039,2.5103158678853896
9.77008269561273,3.0613608144943774
9.790138638552422,2.9389063819146024
9.810194581492112,3.367496895943815
9.830250524431806,2.48990679578876
9.850306467371496,2.693997516755052
9.870362410311188,3.3879059680404446
9.89041835325088,3.2246333912674108
9.91047429619057,3.00013359820449
9.930530239130261,2.8368610214314565
9.950586182069951,2.653179372561794
9.970642125009645,2.4286795794988727
9.990698067949335,2.224588858532581
10.010754010889027,2.102134425952806
10.030809953828719,2.122543498049435
10.050865896768409,2.00008906546966
10.0709218397081,2.1429525701460643
10.090977782647792,2.2858160748224687
10.111033725587484,2.3674523632089852
10.131089668527174,2.4286795794988727
10.151145611466866,2.591952156271906
10.171201554406558,2.5103158678853896
10.191257497346248,2.8572700935280855
10.21131344028594,3.449133184330332
10.231369383225632,3.6124057611033655
10.251425326165323,3.8369055541662864
10.271481269105013,3.449133184330332
10.291537212044707,3.469542256426961
10.311593154984397,3.8369055541662864
10.331649097924087,3.673632977393253
10.35170504086378,4.163450707712354
10.37176098380347,4.5104049333550496
10.391816926743163,5.143086168350554
10.411872869682853,6.5309030709213385
10.431928812622546,7.898310901395494
10.451984755562236,10.204536048314592
10.472040698501926,11.73521645556178
10.49209664144162,15.429258505051664
10.51215258438131,16.408893965689863
10.532208527321002,17.817119940357276
10.552264470260694,17.898756228743792
10.572320413200385,16.878302623912333
10.592376356140075,14.327168611833686
10.612432299079767,13.653669232644924
10.632488242019459,9.673900173802233
10.65254418495915,6.959493584950551
10.672600127898841,4.938995447384262
10.692656070838533,4.796131942707858
10.712712013778225,3.2450424633640402
10.732767956717915,3.0205426703011193
10.752823899657608,2.898088237721344
10.772879842597298,2.9184973098179734
10.792935785536988,3.1225880307842653
10.81299172847668,2.7144065888516815
10.833047671416372,3.1429971028808943
10.853103614356064,3.6328148331999945
10.873159557295754,3.2246333912674108
10.893215500235447,3.1225880307842653
10.913271443175137,3.2246333912674108
10.933327386114827,2.7348156609483105
10.953383329054521,2.877679165624715
10.973439271994211,3.3062696796539277
10.993495214933903,2.8572700935280855
