Energy (keV),Intensity (cps),slope,offset,liveTime
-0.017217458956643884,0.0,20.05594293969134,-17.217458956643885,46.831485748291016
0.002838483983047457,0.0
0.022894426922738798,0.0
0.042950369862430136,0.0
0.06300631280212149,0.0
0.08306225574181282,0.0
0.10311819868150417,0.0
0.12317414162119551,0.0
0.14323008456088684,0.0
0.16328602750057816,0.0
0.1833419704402695,0.0
0.20339791337996088,0.0
0.2234538563196522,0.0
0.24350979925934355,0.0
0.2635657421990349,0.0
0.2836216851387262,0.0
0.3036776280784176,0.0
0.32373357101810896,0.0
0.3437895139578002,0.0
0.3638454568974916,0.0
0.3839013998371829,0.0
0.4039573427768743,0.02135315555382507
0.42401328571656566,0.0
0.4440692286562569,0.02135315555382507
0.4641251715959483,0.08541262221530029
0.48418111453563967,0.14947208887677552
0.504237057475331,0.5978883555071021
0.5242930004150224,1.153070399906554
0.5443489433547137,1.8790776887366063
0.5644048862944051,3.1389138664122855
0.5844608292340963,5.210169955133318
0.6045167721737876,9.480801065898332
0.624572715113479,12.726480710079743
0.6446286580531704,16.014866665368803
0.6646846009928618,19.559490487303766
0.684740543932553,23.74470897585348
0.7047964868722444,28.228871642156744
0.7248524298119358,31.98702701962996
0.7449083727516271,34.10098941945864
0.7649643156913185,37.34666906364005
0.7850202586310097,36.04412657485672
0.805076201570701,40.20799190785261
0.8251321445103924,41.12617759666709
0.8451880874500838,41.85218488549714
0.8652440303897752,44.26509146307937
0.8852999733294665,44.26509146307937
0.9053559162691578,44.22238515197172
0.9254118592088492,43.06931475206517
0.9454678021485405,45.20463030744768
0.9655237450882319,42.471426396558066
0.9855796880279232,44.051559907541126
1.0056356309676144,42.749017418757795
1.0256915739073058,45.0551582185709
1.0457475168469974,44.26509146307937
1.0658034597866886,42.30060115212747
1.0858594027263797,42.40736692989659
1.1059153456660713,44.17967884086407
1.1259712886057625,40.76317395225206
1.146027231545454,43.56043732980314
1.1660831744851452,42.321954307681295
1.1861391174248366,41.93759750771244
1.206195060364528,40.91264604112884
1.2262510033042193,41.062118130005615
1.2463069462439107,40.42152346339086
1.266362889183602,40.57099555226764
1.2864188321232932,39.82363510788376
1.3064747750629846,39.844988263437585
1.326530718002676,39.50333777457638
1.3465866609423673,39.14033413016136
1.3666426038820587,37.795085330270375
1.3866985468217499,39.54604408568403
1.4067544897614415,38.200795285793056
1.4268104327011326,39.39657199680726
1.4468663756408242,40.40017030783704
1.4669223185805154,43.38961208537255
1.4869782615202065,40.86993973002119
1.507034204459898,38.90544941906928
1.5270901473995893,40.14393244119113
1.5471460903392809,38.585152085761905
1.567202033278972,37.19719697476327
1.5872579762186634,37.0477248858865
1.6073139191583548,35.98006710819524
1.6273698620980461,34.656171463858094
1.6474258050377375,38.09402950802393
1.6674817479774289,38.37162053022365
1.6875376909171202,43.36825892981872
1.7075936338568114,47.425358485045486
1.7276495767965028,53.34018257345503
1.7477055197361941,51.930874306902574
1.7677614626758855,47.147767462845756
1.787817405615577,41.08347128555944
1.8078733485552683,39.61010355234551
1.8279292914949594,37.11178435254797
1.847985234434651,36.00142026374907
1.8680411773743422,37.17584381920945
1.8880971203140335,37.11178435254797
1.908153063253725,36.513895997040876
1.928209006193416,35.98006710819524
1.9482649491331077,35.78788870821082
1.9683208920727988,35.98006710819524
1.9883768350124904,37.15449066365562
2.008432777952182,36.343070752610274
2.0284887208918727,35.10458773048842
2.0485446638315645,35.10458773048842
2.0686006067712555,35.125940886042244
2.088656549710947,34.12234257501247
2.1087124926506386,32.67032799735236
2.1287684355903296,34.63481830830427
2.148824378530021,32.734387464013835
2.1688803214697123,31.367785508569032
2.1889362644094037,33.84475155281274
2.208992207349095,32.43544328626028
2.2290481502887864,32.734387464013835
2.249104093228478,32.179205419614384
2.269160036168169,31.922967552968483
2.28921597910786,31.53861075299963
2.309271922047552,33.161450575090335
2.3293278649872433,31.15425395303078
2.3493838079269342,30.962075553046354
2.3694397508666256,31.70943599743023
2.389495693806317,29.937124086462752
2.409551636746009,31.11154764192313
2.4296075796856997,30.51365928641603
2.449663522625391,28.89081946432532
2.4697194655650825,31.06884133081548
2.4897754085047734,29.403295197617123
2.5098313514444652,28.16481217549527
2.5298872943841566,27.716395908864943
2.549943237323848,29.8944177753551
2.569999180263539,28.99758524209445
2.5900551232032303,28.228871642156744
2.610111066142922,28.698641064340897
2.6301670090826135,27.86586799774172
2.6502229520223044,28.100752708833795
2.6702788949619958,28.07939955327997
2.690334837901687,27.289332797788443
2.7103907808413785,27.054448086696365
2.73044672378107,26.200321864543362
2.7505026667207613,26.029496620112763
2.7705586096604526,25.83731822012834
2.7906145526001436,25.04725146463681
2.8106704955398354,26.029496620112763
2.8307264384795268,27.054448086696365
2.850782381419218,24.855073064652384
2.870838324358909,25.13266408685211
2.8908942672986004,25.815965064574513
2.9109502102382923,26.969035464481067
2.931006153177983,27.56692381998817
2.9510620961176746,29.702239375370674
2.971118039057366,27.097154397804015
2.9911739819970573,26.969035464481067
3.0112299249367487,26.43520657563544
3.03128586787644,24.12906577582233
3.0513418108161314,23.851474753622604
3.0713977537558224,23.232233242561676
3.0914536966955137,22.975995375915776
3.1115096396352055,22.100515998208948
3.131565582574897,22.805170131485177
3.151621525514588,23.573883731422878
3.1716774684542792,22.826523287039002
3.1917334113939706,24.235831553591456
3.2117893543336624,26.64873813117369
3.2318452972733533,33.118744263982684
3.2519012402130447,41.019411818897964
3.271957183152736,53.44694835122416
3.2920131260924275,65.19118390582794
3.312069069032119,69.69669972768503
3.33212501197181,62.69286470603041
3.3521809549115016,53.80995199563918
3.3722368978511925,43.53908417424932
3.3922928407908843,31.431844975230504
3.4123487837305757,26.94768230892724
3.432404726670267,22.100515998208948
3.452460669609958,20.563088798333546
3.4725166125496494,19.19648684288874
3.492572555489341,18.876189509581362
3.512628498429032,19.815728353949666
3.5326844413687235,23.91553422028408
3.552740384308415,24.42800995357588
3.5727963272481063,26.627384975619865
3.5928522701877976,27.353392264449916
3.612908213127489,29.574120442047725
3.6329641560671804,30.257421419770125
3.6530200990068717,32.264618041829685
3.6730760419465627,35.01917510827312
3.6931319848862545,34.378580441658364
3.713187927825946,32.54220906402941
3.733243870765637,28.762700531002373
3.753299813705328,22.7411106648237
3.7733557566450195,19.98655359838027
3.7934116995847114,18.128829065197486
3.8134676425244023,17.29605599859831
3.8335235854640937,15.886747732045853
3.853579528403785,16.228398220907053
3.873635471343476,16.014866665368803
3.893691414283168,14.584205243262524
3.913747357222859,15.03262150989285
3.9338033001625505,15.950807198707329
3.9538592431022415,15.99351350981498
3.973915186041933,16.570048709768255
3.9939711289816247,16.484636087552957
4.014027071921316,17.061171287506234
4.034083014861007,15.502390932077002
4.054138957800698,16.16433875424558
4.074194900740389,15.865394576492028
4.094250843680081,14.9045025765699
4.114306786619773,13.922257421093947
4.134362729559464,12.769187021187394
4.154418672499155,12.299417599003242
4.174474615438847,13.17489697671007
4.1945305583785375,12.683774398972092
4.214586501318229,14.968562043231376
4.234642444257921,14.306614221062798
4.254698387197612,14.755030487693125
4.274754330137304,14.7336773321393
4.294810273076994,14.007670043309247
4.314866216016686,13.68737271000187
4.334922158956378,13.751432176663346
4.3549781018960685,12.107239199018816
4.37503404483576,13.238956443371544
4.395089987775451,11.060934576881387
4.415145930715143,11.765588710157614
4.435201873654834,12.235358132341766
4.455257816594525,12.854599643402693
4.475313759534217,11.616116621280838
4.495369702473908,11.95776711014204
4.5154256454135995,11.637469776834664
4.535481588353291,11.765588710157614
4.555537531292982,12.491595998987666
4.575593474232673,12.12859235457264
4.595649417172364,11.466644532404064
4.615705360112056,13.025424887833294
4.635761303051748,12.021826576803516
4.655817245991439,13.068131198940945
4.6758731889311305,11.594763465727015
4.695929131870821,11.57341031017319
4.715985074810512,9.993276799190134
4.736041017750204,10.334927288051334
4.756096960689895,9.801098399205708
4.776152903629587,10.057336265851609
4.796208846569278,8.79750008817593
4.81626478950897,9.160503732590955
4.8363207324486615,8.391790132653254
4.856376675388352,9.13915057703713
4.876432618328043,8.690734310406805
4.896488561267734,8.88291271039123
4.916544504207426,8.434496443760903
4.936600447147118,9.267269510360082
4.956656390086809,8.840206399283579
4.976712333026501,8.840206399283579
4.9967682759661916,7.879314399361451
5.0168242189058825,7.815254932699976
5.036880161845574,7.857961243807626
5.056936104785265,7.986080177130577
5.076992047724957,7.751195466038501
5.097047990664648,6.875716088331673
5.11710393360434,7.45225128828495
5.137159876544032,6.897069243885499
5.157215819483722,7.046541332762274
5.1772717624234135,6.982481866100798
5.197327705363104,7.473604443838775
5.217383648302796,6.427299821701347
5.237439591242488,6.576771910578122
5.257495534182179,6.662184532793423
5.277551477121871,6.790303466116373
5.297607420061561,7.110600799423749
5.317663363001253,7.644429688269375
5.3377193059409445,7.430898132731125
5.357775248880635,8.733440621514454
5.377831191820327,8.62667484374533
5.397887134760018,9.245916354806257
5.41794307769971,8.818853243729755
5.437999020639402,9.288622665913906
5.458054963579092,7.986080177130577
5.478110906518784,8.156905421561177
5.498166849458475,7.36683866606965
5.518222792398166,6.021589866178671
5.538278735337858,6.512712443916647
5.558334678277549,6.747597155008723
5.578390621217241,5.765351999532769
5.598446564156931,5.808058310640419
5.618502507096623,5.6585862217636445
5.638558450036315,5.359642044010093
5.6586143929760055,4.911225777379767
5.678670335915697,5.274229421794793
5.698726278855388,5.402348355117743
5.71878222179508,5.445054666225393
5.738838164734771,4.911225777379767
5.758894107674462,6.000236710624845
5.778950050614154,6.085649332840146
5.799005993553845,7.601723377161726
5.8190619364935365,9.30997582146773
5.839117879433228,10.975521954666087
5.859173822372919,15.075327821000501
5.87922976531261,16.740873954198857
5.899285708252301,16.100279287584105
5.919341651191993,16.356517154230005
5.939397594131685,13.452487998909795
5.959453537071376,10.74063724357401
5.9795094800110675,8.477202754868554
5.9995654229507585,6.918422399439323
6.01962136589045,5.274229421794793
6.039677308830141,5.060697866256542
6.059733251769832,4.569575288518565
6.079789194709524,4.185218488549714
6.099845137649215,4.057099555226763
6.119901080588907,4.185218488549714
6.1399570235285985,4.526868977410915
6.160012966468289,4.59092844407239
6.18006890940798,4.676341066287691
6.200124852347671,4.5482221329647405
6.220180795287363,6.149708799501621
6.240236738227055,10.078689421405434
6.260292681166746,17.14658390972153
6.280348624106438,31.68808284187641
6.300404567046129,53.08394470680913
6.3204605099858195,86.09592319302268
6.340516452925511,130.8948435449477
6.360572395865202,169.28781723072518
6.380628338804894,200.0577143837871
6.400684281744585,206.07930424996576
6.420740224684277,198.79787820611142
6.440796167623969,165.33748345326754
6.460852110563659,125.55655465649143
6.4809080535033505,84.49443652648581
6.500963996443042,52.35793741797907
6.521019939382733,30.81260346416958
6.541075882322425,17.08252444306006
6.561131825262116,9.245916354806257
6.581187768201808,6.897069243885499
6.6012437111415,4.740400532949166
6.62129965408119,3.7368022219193877
6.6413555970208815,3.288385955289061
6.6614115399605724,3.5019175108273117
6.681467482900264,3.288385955289061
6.701523425839956,3.587330133042612
6.721579368779647,3.3737985775043615
6.741635311719339,3.224326488627586
6.761691254659029,3.4592111997196615
6.781747197598721,3.053501244196985
6.8018031405384125,3.843567999688513
6.821859083478103,3.565976977488787
6.841915026417795,3.8222148441346877
6.861970969357486,4.291984266318839
6.882026912297178,4.868519466272116
6.902082855236869,6.06429617728632
6.92213879817656,7.067894488316099
6.942194741116252,9.822451554759533
6.962250684055943,15.523744087630828
6.982306626995634,21.652099731578623
7.002362569935326,27.887221153295545
7.022418512875017,33.03333164176738
7.042474455814709,36.77013386368677
7.062530398754399,36.812840174794424
7.082586341694091,34.036929952797166
7.102642284633783,28.54916897546412
7.122698227573474,23.95824053139173
7.142754170513165,16.740873954198857
7.162810113452856,11.082287732435212
7.182866056392548,8.135552266007352
7.202921999332239,5.082051021810367
7.22297794227193,4.33469057742649
7.243033885211622,3.864921155242338
7.263089828151313,3.053501244196985
7.283145771091005,3.0962075553046353
7.303201714030696,3.053501244196985
7.323257656970387,3.1175607108584606
7.343313599910078,3.1816201775199358
7.363369542849769,3.288385955289061
7.383425485789461,3.1175607108584606
7.403481428729153,3.224326488627586
7.423537371668844,3.7154490663655624
7.443593314608536,4.441456355195615
7.4636492575482265,3.779508533027038
7.483705200487917,3.4592111997196615
7.503761143427609,3.4592111997196615
7.5238170863673,3.309739110842886
7.543873029306992,3.0962075553046353
7.563928972246683,3.053501244196985
7.583984915186375,2.370200266474583
7.604040858126067,2.690497599781959
7.6240968010657575,3.1389138664122855
7.644152744005448,3.0962075553046353
7.664208686945139,2.7972633775510842
7.684264629884831,3.0107949330893353
7.704320572824523,2.5623786664590087
7.724376515764214,3.288385955289061
7.744432458703906,3.0962075553046353
7.764488401643597,3.224326488627586
7.784544344583288,3.800861688580863
7.804600287522979,3.907627466349988
7.82465623046267,3.565976977488787
7.844712173402362,4.654987910733865
7.864768116342053,5.167463644025667
7.884824059281745,5.93617724396337
7.904880002221437,7.3027791994081745
7.924935945161127,11.103640887989037
7.944991888100819,15.395625154307877
7.9650478310405095,20.54173564277972
7.985103773980201,26.499266042296913
8.005159716919893,33.866104708366564
8.025215659859583,39.95175404120671
8.045271602799275,41.68135964106654
8.065327545738967,41.87353804105096
8.085383488678659,41.766772263281844
8.10543943161835,39.844988263437585
8.12549537455804,35.98006710819524
8.145551317497732,33.28956950841329
8.165607260437422,26.90497599781959
8.185663203377114,21.18233030939447
8.205719146316806,16.954405509737107
8.225775089256498,12.384830221218541
8.24583103219619,9.566213688113633
8.26588697513588,8.648027999299154
8.285942918075573,7.729842310484676
8.305998861015263,7.3027791994081745
8.326054803954953,8.007433332684402
8.346110746894645,8.946972177052706
8.366166689834337,11.018228265773738
8.386222632774029,11.530703999065539
8.406278575713719,11.146347199096688
8.426334518653412,11.402585065742588
8.446390461593102,10.35628044360516
8.466446404532793,11.57341031017319
8.486502347472486,12.149945510126466
8.506558290412176,15.651863020953778
8.526614233351868,21.075564531625346
8.546670176291558,30.599071908631327
8.566726119231252,41.489181241082115
8.586782062170942,51.7814022180258
8.606838005110632,58.9347093285572
8.626893948050325,62.24444843940008
8.646949890990015,62.56474577270746
8.667005833929707,55.13384763997634
8.687061776869399,47.40400532949166
8.70711771980909,36.2790112859488
8.72717366274878,27.16121386446549
8.74722960568847,17.616353331905685
8.767285548628164,12.91865911006417
8.787341491567854,10.078689421405434
8.807397434507546,7.986080177130577
8.827453377447238,7.131953954977574
8.84750932038693,8.199611732668828
8.86756526332662,8.178258577115002
8.887621206266312,9.886511021421008
8.907677149206004,9.651626310328933
8.927733092145694,8.946972177052706
8.947789035085385,8.498555910422379
8.967844978025077,7.5376639105002505
8.98790092096477,6.10700248839397
9.00795686390446,5.274229421794793
9.028012806844151,4.996638399595067
9.048068749783843,4.441456355195615
9.068124692723533,4.868519466272116
9.088180635663226,5.72264568842512
9.108236578602916,7.174660266085224
9.128292521542608,9.950570488082484
9.148348464482298,13.110837510048594
9.16840440742199,18.342360620735736
9.188460350361682,23.680649509192005
9.208516293301372,27.481511197772868
9.228572236241066,33.03333164176738
9.248628179180756,33.97287048613569
9.268684122120447,36.193598663733496
9.28874006506014,36.55660230814852
9.30879600799983,34.31452097499689
9.328851950939521,33.524454219505365
9.348907893879211,32.11514595295291
9.368963836818905,29.317882575401825
9.389019779758595,23.61659004253053
9.409075722698287,19.75166888728819
9.429131665637978,17.787178576336284
9.44918760857767,16.698167643091207
9.46924355151736,17.210643376383008
9.489299494457052,17.25334968749066
9.509355437396744,17.50958755413656
9.529411380336434,19.345958931765516
9.549467323276126,20.862032976087097
9.569523266215818,20.883386131640922
9.58957920915551,22.612991731500752
9.6096351520952,22.506225953731626
9.629691095034891,22.805170131485177
9.649747037974583,22.420813331516324
9.669802980914273,19.388665242873167
9.689858923853967,17.63770648745951
9.709914866793657,16.228398220907053
9.729970809733349,13.666019554448045
9.750026752673039,10.804696710235486
9.77008269561273,9.438094754790681
9.790138638552422,8.455849599314728
9.810194581492112,7.345485510515824
9.830250524431806,6.427299821701347
9.850306467371496,7.196013421639049
9.870362410311188,6.7689503105625475
9.89041835325088,7.153307110531399
9.91047429619057,7.067894488316099
9.930530239130261,6.149708799501621
9.950586182069951,6.042943021732495
9.970642125009645,5.701292532871294
9.990698067949335,5.146110488471843
10.010754010889027,4.697694221841516
10.030809953828719,4.206571644103539
10.050865896768409,3.565976977488787
10.0709218397081,4.313337421872665
10.090977782647792,3.672742755257912
10.111033725587484,3.672742755257912
10.131089668527174,4.37739688853414
10.151145611466866,5.210169955133318
10.171201554406558,6.961128710546974
10.191257497346248,8.242318043776478
10.21131344028594,10.890109332450786
10.231369383225632,11.018228265773738
10.251425326165323,11.082287732435212
10.271481269105013,10.868756176896962
10.291537212044707,11.594763465727015
10.311593154984397,10.826049865789312
10.331649097924087,9.544860532559808
10.35170504086378,8.242318043776478
10.37176098380347,7.5803702216079
10.391816926743163,7.900667554915277
10.411872869682853,8.028786488238227
10.431928812622546,10.22816151028221
10.451984755562236,11.893707643480566
10.472040698501926,13.644666398894222
10.49209664144162,15.395625154307877
10.51215258438131,18.534539020720164
10.532208527321002,19.49543102064229
10.552264470260694,19.06836790956579
10.572320413200385,18.000710131874534
10.592376356140075,15.182093598769626
10.612432299079767,14.071729509970723
10.632488242019459,10.548458843589586
10.65254418495915,8.690734310406805
10.672600127898841,6.7689503105625475
10.692656070838533,5.701292532871294
10.712712013778225,4.9539320884874165
10.732767956717915,4.633634755180041
10.752823899657608,4.932578932933591
10.772879842597298,4.676341066287691
10.792935785536988,5.402348355117743
10.81299172847668,6.405946666147521
10.833047671416372,7.644429688269375
10.853103614356064,8.75479377706828
10.873159557295754,8.477202754868554
10.893215500235447,9.18185688814478
10.913271443175137,9.245916354806257
10.933327386114827,9.05373795482183
10.953383329054521,8.66938115485298
10.973439271994211,6.3632403550398715
10.993495214933903,6.235121421716921
