Energy (keV),Intensity (cps),slope,offset,liveTime
-0.016753362679535415,0.0,20.051730854418228,-16.753362679535414,33.8066291809082
0.003298368174882814,0.0
0.023350099029301043,0.0
0.043401829883719274,0.0
0.0634535607381375,0.0
0.08350529159255572,0.0
0.10355702244697396,0.0
0.12360875330139219,0.0
0.14366048415581043,0.0
0.16371221501022865,0.0
0.18376394586464687,0.0
0.2038156767190651,0.0
0.2238674075734833,0.0
0.24391913842790156,0.0
0.2639708692823198,0.0
0.28402260013673797,0.0
0.3040743309911562,0.0
0.32412606184557446,0.0
0.34417779269999266,0.0
0.3642295235544109,0.0
0.3842812544088291,0.0
0.40433298526324735,0.0
0.42438471611766554,0.059159994606308476
0.4444364469720838,0.029579997303154238
0.4644881778265021,0.2366399784252339
0.4845399086809203,0.35495996763785087
0.5045916395353385,1.2127798894293238
0.5246433703897568,2.1889198004334136
0.544695101244175,4.200359617047901
0.5647468320985932,7.158359347363326
0.5847985629530115,13.636378756754103
0.6048502938074297,19.315738238959717
0.624902024661848,27.272757513508207
0.6449537555162661,39.8146763700456
0.6650054863706844,48.629515566385564
0.6850572172251026,62.94623426111222
0.7051089480795208,73.15133333070042
0.725160678933939,85.13123223847789
0.7452124097883572,93.2657314968453
0.7652641406427755,105.83723035068586
0.7853158714971937,112.28566976277348
0.805367602351612,113.14348968456495
0.8254193332060301,112.84768971153342
0.8454710640604484,112.22650976816718
0.8655227949148666,108.35153012145398
0.8855745257692849,110.71792990570631
0.9056262566237031,104.92025043428808
0.9256779874781212,100.86779080375595
0.9457297183325396,97.19987113816482
0.9657814491869579,90.7514317260772
0.9858331800413761,83.47475238950126
1.0058849108957943,81.69995255131201
1.0259366417502125,74.18663323631083
1.0459883726046306,70.81451354375125
1.0660401034590488,65.16473405884878
1.086091834313467,61.58555438516712
1.1061435651678853,55.43291494611104
1.1261952960223034,54.30887504859118
1.1462470268767218,52.88903517803978
1.16629875773114,48.954895536720265
1.1863504885855582,45.46445585494806
1.2064022194399764,42.772676100361025
1.2264539502943947,39.69635638083299
1.2465056811488127,39.134336432073056
1.266557412003231,35.46641676648193
1.2866091428576494,33.63245693368637
1.3066608737120675,31.97597708470973
1.3267126045664859,31.206897154827722
1.346764335420904,27.893937456874447
1.3668160662753224,26.8882175485672
1.3868677971297405,27.627717481146057
1.4069195279841589,27.538977489236593
1.4269712588385768,30.319497235733092
1.4470229896929951,30.674457203370945
1.4670747205474133,34.54943685008415
1.4871264514018316,33.78035692020214
1.5071781822562498,31.76891710358765
1.5272299131106681,24.935937726559022
1.5472816439650863,23.072397896460306
1.5673333748195046,21.445498044786824
1.5873851056739228,19.493218222778644
1.6074368365283411,18.310018330652472
1.627488567382759,19.729858201203875
1.6475402982371774,19.552378217384952
1.6675920290915955,19.75943819850703
1.687643759946014,20.143978163448036
1.707695490800432,25.083837713074793
1.7277472216548504,28.574277394846995
1.7477989525092685,28.48553740293753
1.767850683363687,29.93495727079209
1.787902414218105,29.254617332819542
1.8079541450725232,27.50939749193344
1.8280058759269413,27.538977489236593
1.8480576067813597,29.284197330122694
1.8681093376357778,28.248897424512297
1.8881610684901962,25.497957675318954
1.9082127993446145,27.065697532386128
1.9282645301990327,32.005557082012885
1.948316261053451,43.748816011365115
1.9683679919078692,81.69995255131201
1.9884197227622873,146.48014664521978
2.0084714536167056,233.4749187137964
2.028523184471124,309.0518118233555
2.0485749153255424,349.4876681367673
2.0686266461799607,337.12322926404886
2.0886783770343786,316.94967110329765
2.1087301078887966,300.3848726135313
2.1287818387432154,265.7171157742345
2.1488335695976333,224.8079795039722
2.1688853004520516,175.82350396994877
2.1889370313064695,134.94394769698962
2.2089887621608884,102.08057069318528
2.2290404930153063,69.48341366510931
2.2490922238697246,52.97777516994924
2.2691439547241425,37.182056610064876
2.289195685578561,27.09527752968928
2.3092474164329793,23.013237901853998
2.329299147287397,22.362477961184602
2.3493508781418155,18.901618276715556
2.369402608996234,18.517078311774554
2.3894543398506523,18.724138292896633
2.40950607070507,18.13253834683355
2.4295578015594885,17.067658443919996
2.449609532413907,16.742278473585298
2.469661263268325,17.24513842773892
2.489712994122743,16.949338454707377
2.509764724977161,17.333878419648382
2.52981645583158,16.18025852482537
2.549868186685998,17.65925838998308
2.569919917540416,15.825298557187518
2.5899716483948345,17.600098395376772
2.610023379249253,15.795718559884364
2.630075110103671,16.091518532915906
2.6501268409580887,14.908318640789735
2.6701785718125075,15.766138562581208
2.6902303026669254,16.594378487069527
2.710282033521344,15.470338589549666
2.7303337643757617,15.381598597640204
2.7503854952301805,14.435038683939268
2.7704372260845984,13.902598732482492
2.7904889569390168,15.381598597640204
2.8105406877934347,14.553358673151886
2.830592418647853,15.943618546400135
2.8506441495022714,14.375878689332959
2.8706958803566893,14.73083865697081
2.8907476112111077,16.32815851134114
2.910799342065526,17.097238441223148
2.9308510729199444,18.605818303684014
2.9509028037743623,18.13253834683355
2.9709545346287807,17.422618411557846
2.991006265483199,16.06193853561275
3.011057996337617,15.884458551793825
3.0311097271920353,14.849158646183428
3.0511614580464532,14.58293867045504
3.071213188900872,14.819578648880274
3.09126491975529,14.257558700120342
3.1113166506097083,14.908318640789735
3.131368381464126,13.251838791813098
3.151420112318545,16.06193853561275
3.171471843172963,13.932178729785646
3.1915235740273813,14.020918721695109
3.2115753048817997,13.251838791813098
3.2316270357362176,14.760418654273964
3.251678766590636,13.665958754057257
3.271730497445054,13.458898772935179
3.2917822282994726,13.695538751360411
3.3118339591538906,12.127798894293237
3.331885690008309,13.75469874596672
3.351937420862727,13.399738778328869
3.3719891517171456,12.541918856537396
3.3920408825715636,11.920738913171158
3.4120926134259815,12.57149885384055
3.4321443442804,12.837718829568939
3.452196075134818,12.63065884844686
3.4722478059892365,12.926458821478402
3.4922995368436545,12.926458821478402
3.512351267698073,13.04477881069102
3.532402998552491,11.624938940139616
3.5524547294069095,13.251838791813098
3.5725064602613275,12.394018870021625
3.5925581911157454,11.831998921261695
3.612609921970164,11.920738913171158
3.632661652824582,11.536198948230153
3.6527133836790004,11.802418923958541
3.6727651145334184,13.04477881069102
3.692816845387837,12.601078851143706
3.712868576242255,11.477038953623843
3.7329203070966734,11.477038953623843
3.7529720379510914,11.624938940139616
3.7730237688055097,12.2165388862027
3.793075499659928,11.417878959017536
3.813127230514346,10.855859010257605
3.833178961368765,12.601078851143706
3.8532306922231827,11.477038953623843
3.873282423077601,11.003758996773376
3.893334153932019,11.210818977895457
3.913385884786438,10.796699015651297
3.9334376156408557,10.767119018348142
3.9534893464952736,11.536198948230153
3.973541077349692,9.55433912891882
3.9935928082041103,9.820559104647208
4.013644539058529,9.49517913431251
4.033696269912947,10.53047903992291
4.0537480007673645,11.122078985985993
4.073799731621784,9.643079120828281
4.093851462476201,9.70223911543459
4.11390319333062,9.288119153190431
4.133954924185037,10.944599002167068
4.154006655039455,9.790979107344052
4.174058385893874,9.288119153190431
4.194110116748292,9.317699150493585
4.2141618476027105,9.317699150493585
4.234213578457128,8.962739182855733
4.254265309311547,8.282399244883187
4.274317040165966,8.430299231398958
4.294368771020383,8.785259199036808
4.314420501874801,8.992319180158889
4.334472232729219,8.548619220611574
4.354523963583638,6.951299366241246
4.3745756944380565,7.838699285335873
4.394627425292474,8.075339263761107
4.414679156146892,8.962739182855733
4.434730887001312,9.70223911543459
4.454782617855729,8.7260992044305
4.474834348710147,9.790979107344052
4.494886079564566,10.53047903992291
4.514937810418983,10.412159050710292
4.5349895412734025,10.234679066891367
4.55504127212782,9.347279147796739
4.575093002982238,8.548619220611574
4.595144733836657,9.228959158584122
4.615196464691075,8.57819921791473
4.635248195545493,8.282399244883187
4.655299926399912,7.3358393311822505
4.675351657254329,8.637359212521037
4.695403388108748,8.10491926106426
4.715455118963166,7.513319315001176
4.735506849817584,8.075339263761107
4.755558580672003,8.045759266457953
4.77561031152642,7.187939344666479
4.795662042380839,6.892139371634937
4.815713773235258,6.744239385119166
4.835765504089675,7.513319315001176
4.855817234944094,7.454159320394868
4.875868965798511,7.217519341969634
4.89592069665293,7.069619355453863
4.915972427507349,8.045759266457953
4.936024158361766,8.252819247580032
4.9560758892161845,7.838699285335873
4.976127620070604,7.0104593608475545
4.996179350925021,6.714659387816012
5.0162310817794395,7.276679336575943
5.036282812633857,6.9808793635444
5.056334543488275,7.069619355453863
5.076386274342695,7.838699285335873
5.096438005197112,5.827259468721385
5.1164897360515305,7.454159320394868
5.136541466905949,7.513319315001176
5.156593197760367,6.5371794039970865
5.1766449286147855,6.77381938242232
5.196696659469204,6.921719368938092
5.216748390323621,7.454159320394868
5.236800121178041,7.661219301516947
5.256851852032458,7.454159320394868
5.276903582886876,7.128779350060171
5.296955313741295,8.311979242186341
5.317007044595712,9.258539155887277
5.3370587754501315,12.778558834962631
5.35711050630455,15.115378621911816
5.377162237158967,16.623958484372682
5.397213968013386,20.26229815266065
5.417265698867803,18.694558295593477
5.437317429722222,17.955058363014622
5.457369160576641,16.06193853561275
5.477420891431058,12.837718829568939
5.497472622285477,11.151658983289147
5.517524353139896,9.08105917206835
5.537576083994313,8.016179269154799
5.557627814848732,7.069619355453863
5.577679545703149,6.803399379725475
5.597731276557568,7.4837393176980225
5.617783007411987,6.892139371634937
5.637834738266404,7.158359347363326
5.657886469120823,6.892139371634937
5.677938199975241,7.217519341969634
5.697989930829659,7.4837393176980225
5.718041661684078,7.099199352757017
5.738093392538495,7.040039358150708
5.7581451233929135,7.128779350060171
5.778196854247333,6.921719368938092
5.79824858510175,8.016179269154799
5.818300315956169,7.4837393176980225
5.838352046810587,7.986599271851644
5.858403777665004,7.276679336575943
5.878455508519424,8.548619220611574
5.898507239373842,9.465599137009356
5.9185589702282595,10.589639034529217
5.938610701082678,9.613499123525127
5.958662431937096,9.406439142403048
5.978714162791515,8.962739182855733
5.998765893645933,8.311979242186341
6.01881762450035,8.016179269154799
6.038869355354769,7.661219301516947
6.058921086209188,6.921719368938092
6.0789728170636055,6.448439412087624
6.099024547918024,6.9808793635444
6.119076278772441,6.714659387816012
6.139128009626861,7.099199352757017
6.159179740481279,6.655499393209704
6.179231471335696,7.099199352757017
6.199283202190115,6.951299366241246
6.219334933044533,7.572479309607485
6.2393866638989515,8.341559239489495
6.25943839475337,11.65451893744277
6.279490125607787,14.878738643486582
6.299541856462206,18.546658309077706
6.319593587316625,26.414937591716733
6.339645318171042,36.35381668557656
6.359697049025461,46.85471572819631
6.379748779879879,55.90619490296151
6.399800510734297,59.012094619792705
6.419852241588716,54.90047499465427
6.439903972443134,48.185815606838254
6.459955703297552,37.122896615458565
6.48000743415197,26.799477556657738
6.500059165006388,18.398758322561935
6.520110895860807,13.9617587270888
6.540162626715225,10.352999056103982
6.5602143575696426,8.045759266457953
6.580266088424061,7.187939344666479
6.60031781927848,7.927439277245336
6.620369550132898,7.306259333879097
6.640421280987316,7.454159320394868
6.6604730118417335,6.832979377028629
6.680524742696153,6.507599406693933
6.700576473550571,7.040039358150708
6.7206282044049885,6.803399379725475
6.740679935259407,6.152639439056081
6.760731666113825,6.9808793635444
6.780783396968244,6.803399379725475
6.800835127822662,6.182219436359236
6.8208868586770794,6.862559374331783
6.840938589531498,6.892139371634937
6.860990320385917,7.572479309607485
6.8810420512403345,7.868279282639027
6.901093782094753,7.986599271851644
6.921145512949171,7.779539290729565
6.941197243803589,8.903579188249426
6.961248974658008,9.672659118131437
6.981300705512425,9.90929909655667
7.001352436366844,13.103938805297327
7.021404167221262,14.671678662364501
7.0414558980756805,13.429318775632025
7.061507628930099,13.784278743269875
7.081559359784517,14.58293867045504
7.101611090638935,12.867298826872092
7.121662821493353,11.358718964411228
7.141714552347772,10.796699015651297
7.16176628320219,7.661219301516947
7.181818014056608,8.51903922330842
7.201869744911026,7.513319315001176
7.221921475765445,6.596339398603395
7.241973206619863,7.3358393311822505
7.262024937474281,7.513319315001176
7.282076668328699,6.744239385119166
7.302128399183117,6.862559374331783
7.322180130037536,7.454159320394868
7.342231860891954,7.8091192880327185
7.362283591746372,8.459879228702112
7.38233532260079,9.347279147796739
7.402387053455209,10.796699015651297
7.422438784309627,11.920738913171158
7.442490515164045,13.9617587270888
7.462542246018463,13.518058767541486
7.482593976872881,15.174538616518124
7.5026457077273,13.015198813387865
7.522697438581718,11.831998921261695
7.542749169436136,11.03333899407653
7.562800900290554,9.613499123525127
7.582852631144973,8.548619220611574
7.602904361999391,7.690799298820102
7.622956092853809,7.720379296123256
7.643007823708227,6.714659387816012
7.663059554562645,7.365419328485405
7.6831112854170645,6.951299366241246
7.703163016271482,7.6316393042137936
7.7232147471259,7.454159320394868
7.743266477980318,7.306259333879097
7.763318208834737,7.394999325788559
7.783369939689155,7.897859279942182
7.803421670543573,7.454159320394868
7.823473401397991,8.400719234095803
7.84352513225241,8.371139236792649
7.863576863106828,8.10491926106426
7.883628593961246,9.406439142403048
7.903680324815664,9.288119153190431
7.923732055670082,10.352999056103982
7.943783786524501,10.26425906419452
7.963835517378919,10.205099069588211
7.983887248233337,12.394018870021625
8.003938979087756,12.334858875415318
8.023990709942174,12.098218896990083
8.044042440796591,13.103938805297327
8.064094171651009,13.13351880260048
8.084145902505428,11.506618950926999
8.104197633359847,10.145939074981904
8.124249364214265,9.55433912891882
8.144301095068682,9.49517913431251
8.164352825923102,9.347279147796739
8.184404556777519,8.400719234095803
8.204456287631938,8.51903922330842
8.224508018486356,8.51903922330842
8.244559749340775,8.844419193643118
8.264611480195192,8.16407925567057
8.28466321104961,8.400719234095803
8.30471494190403,7.897859279942182
8.324766672758447,8.10491926106426
8.344818403612866,7.306259333879097
8.364870134467283,7.040039358150708
8.3849218653217,6.625919395906549
8.40497359617612,6.596339398603395
8.425025327030538,7.187939344666479
8.445077057884957,6.951299366241246
8.465128788739376,6.507599406693933
8.485180519593792,7.74995929342641
8.505232250448211,7.720379296123256
8.52528398130263,7.454159320394868
8.545335712157048,6.9808793635444
8.565387443011467,8.10491926106426
8.585439173865883,8.045759266457953
8.605490904720302,7.986599271851644
8.625542635574721,7.8091192880327185
8.645594366429139,7.868279282639027
8.665646097283558,7.276679336575943
8.685697828137974,7.572479309607485
8.705749558992393,6.744239385119166
8.725801289846812,7.838699285335873
8.74585302070123,7.3358393311822505
8.765904751555649,8.311979242186341
8.785956482410068,7.95701927454849
8.806008213264484,8.755679201733654
8.826059944118903,7.95701927454849
8.84611167497332,8.607779215217883
8.86616340582774,9.583919126221973
8.886215136682159,7.720379296123256
8.906266867536575,9.643079120828281
8.926318598390994,9.376859145099893
8.946370329245411,9.583919126221973
8.96642206009983,9.850139101950361
8.98647379095425,9.406439142403048
9.006525521808667,10.027619085769286
9.026577252663085,9.436019139706202
9.046628983517502,8.57819921791473
9.066680714371921,8.844419193643118
9.08673244522634,8.7260992044305
9.106784176080758,8.844419193643118
9.126835906935176,8.7260992044305
9.146887637789593,8.400719234095803
9.166939368644012,8.666939209824191
9.186991099498432,8.666939209824191
9.207042830352849,8.223239250276878
9.227094561207267,8.10491926106426
9.247146292061686,8.341559239489495
9.267198022916103,8.814839196339962
9.287249753770523,8.489459226005266
9.30730148462494,8.57819921791473
9.32735321547936,9.169799163977814
9.347404946333777,9.761399110040898
9.367456677188194,8.755679201733654
9.387508408042613,8.785259199036808
9.407560138897031,8.371139236792649
9.42761186975145,7.513319315001176
9.447663600605868,8.607779215217883
9.467715331460285,7.838699285335873
9.487767062314704,6.951299366241246
9.507818793169124,7.3358393311822505
9.527870524023541,7.040039358150708
9.547922254877959,7.95701927454849
9.567973985732376,8.57819921791473
9.588025716586795,7.572479309607485
9.608077447441215,7.4837393176980225
9.628129178295632,8.844419193643118
9.648180909150051,9.258539155887277
9.668232640004467,8.51903922330842
9.688284370858886,8.785259199036808
9.708336101713305,9.49517913431251
9.728387832567723,8.696519207127347
9.748439563422142,8.814839196339962
9.768491294276558,8.075339263761107
9.788543025130977,8.252819247580032
9.808594755985396,8.992319180158889
9.828646486839814,7.276679336575943
9.848698217694233,7.661219301516947
9.868749948548652,8.459879228702112
9.888801679403068,7.8091192880327185
9.908853410257487,7.690799298820102
9.928905141111905,6.921719368938092
9.948956871966324,6.951299366241246
9.969008602820743,7.897859279942182
9.989060333675159,8.57819921791473
10.009112064529578,7.099199352757017
10.029163795383996,7.95701927454849
10.049215526238415,7.779539290729565
10.069267257092834,8.252819247580032
10.08931898794725,6.77381938242232
10.109370718801669,8.193659252973724
10.129422449656087,7.306259333879097
10.149474180510506,9.228959158584122
10.169525911364925,7.720379296123256
10.189577642219342,7.513319315001176
10.20962937307376,7.6316393042137936
10.22968110392818,8.252819247580032
10.249732834782597,7.54289931230433
10.269784565637016,8.252819247580032
10.289836296491433,7.74995929342641
10.30988802734585,8.607779215217883
10.32993975820027,9.228959158584122
10.349991489054688,8.10491926106426
10.370043219909107,8.075339263761107
10.390094950763524,8.311979242186341
10.410146681617944,8.57819921791473
10.430198412472361,9.317699150493585
10.450250143326778,8.962739182855733
10.470301874181198,8.637359212521037
10.490353605035615,8.10491926106426
10.510405335890034,8.755679201733654
10.530457066744452,8.666939209824191
10.55050879759887,9.228959158584122
10.570560528453289,7.661219301516947
10.590612259307708,8.193659252973724
10.610663990162125,8.607779215217883
10.630715721016543,9.021899177462043
10.65076745187096,8.7260992044305
10.67081918272538,8.666939209824191
10.690870913579799,8.016179269154799
10.710922644434216,8.696519207127347
10.730974375288636,9.199379161280968
10.751026106143051,8.252819247580032
10.77107783699747,7.74995929342641
10.79112956785189,8.607779215217883
10.811181298706307,9.169799163977814
10.831233029560726,9.968459091162979
10.851284760415142,9.08105917206835
10.871336491269561,9.228959158584122
10.89138822212398,8.696519207127347
10.911439952978398,9.436019139706202
10.931491683832817,9.879719099253515
10.951543414687237,9.08105917206835
10.971595145541652,8.282399244883187
10.991646876396072,8.341559239489495
11.011698607250489,8.873999190946272
11.031750338104908,9.938879093859823
