Energy (keV),Intensity (cps),slope,offset,liveTime
-0.016753362679535415,0.0,20.051730854418228,-16.753362679535414,32.350425720214844
0.003298368174882814,0.0
0.023350099029301043,0.0
0.043401829883719274,0.0
0.0634535607381375,0.0
0.08350529159255572,0.0
0.10355702244697396,0.0
0.12360875330139219,0.0
0.14366048415581043,0.0
0.16371221501022865,0.0
0.18376394586464687,0.0
0.2038156767190651,0.0
0.2238674075734833,0.0
0.24391913842790156,0.0
0.2639708692823198,0.0
0.28402260013673797,0.0
0.3040743309911562,0.0
0.32412606184557446,0.0
0.34417779269999266,0.0
0.3642295235544109,0.0
0.3842812544088291,0.0
0.40433298526324735,0.0
0.42438471611766554,0.03091149429217956
0.4444364469720838,0.06182298858435912
0.4644881778265021,0.3400264372139752
0.4845399086809203,0.49458390867487295
0.5045916395353385,1.0200793116419256
0.5246433703897568,2.6583885091274424
0.544695101244175,4.729458626703472
0.5647468320985932,7.449670124415274
0.5847985629530115,13.910172431480802
0.6048502938074297,19.474241404073123
0.624902024661848,26.367504631229167
0.6449537555162661,37.55746556499817
0.6650054863706844,45.74901155242575
0.6850572172251026,57.71175984349924
0.7051089480795208,69.39630468594311
0.725160678933939,77.06235527040364
0.7452124097883572,83.77014953180661
0.7652641406427755,85.00660930349379
0.7853158714971937,88.59234264138662
0.805367602351612,91.21981965622189
0.8254193332060301,88.19049321558829
0.8454710640604484,87.4177058582838
0.8655227949148666,85.81030815509047
0.8855745257692849,77.34055871903327
0.9056262566237031,74.40396676127621
0.9256779874781212,71.56010928639569
0.9457297183325396,65.40872192225196
0.9657814491869579,58.57728168368027
0.9858331800413761,54.68243340286564
1.0058849108957943,53.3841506425941
1.0259366417502125,48.87107247593588
1.0459883726046306,46.08903798963973
1.0660401034590488,40.18494257983343
1.086091834313467,40.77226097138484
1.1061435651678853,38.91757131385407
1.1261952960223034,35.70277590746739
1.1462470268767218,35.053634527331624
1.16629875773114,32.117042569574565
1.1863504885855582,30.726025326426484
1.2064022194399764,30.540556360673406
1.2264539502943947,27.016646011364937
1.2465056811488127,25.378336813879418
1.266557412003231,24.389168996529673
1.2866091428576494,22.936328764797235
1.3066608737120675,21.452577038772617
1.3267126045664859,20.710701175760306
1.346764335420904,21.761691981694412
1.3668160662753224,19.59788738124184
1.3868677971297405,19.07239197827479
1.4069195279841589,21.20528508443518
1.4269712588385768,23.770939110686083
1.4470229896929951,26.460239114105704
1.4670747205474133,28.90224716318789
1.4871264514018316,28.376751760220838
1.5071781822562498,26.55297359698224
1.5272299131106681,23.647293133517366
1.5472816439650863,18.97965749539825
1.5673333748195046,16.97041036640658
1.5873851056739228,17.46499427508145
1.6074368365283411,17.743197723711067
1.627488567382759,18.052312666632865
1.6475402982371774,18.423250598139017
1.6675920290915955,23.029063247673772
1.687643759946014,26.398416125521344
1.707695490800432,30.32417590062815
1.7277472216548504,30.478733372089046
1.7477989525092685,30.32417590062815
1.767850683363687,27.943990840130322
1.787902414218105,24.79101842232801
1.8079541450725232,25.47107129675596
1.8280058759269413,33.477148318430466
1.8480576067813597,57.00079547477911
1.8681093376357778,101.35878978405678
1.8881610684901962,162.50172549398795
1.9082127993446145,212.4547002701501
1.9282645301990327,250.38310376665444
1.948316261053451,249.61031640934996
1.9683679919078692,236.78204627809544
1.9884197227622873,216.8750439539318
2.0084714536167056,189.0546990909702
2.028523184471124,149.426163408396
2.0485749153255424,111.86869784339783
2.0686266461799607,80.27715067679031
2.0886783770343786,59.04095409806296
2.1087301078887966,41.761428788734584
2.1287818387432154,31.436989695146615
2.1488335695976333,24.420080490821853
2.1688853004520516,20.216117267085433
2.1889370313064695,19.75244485270274
2.2089887621608884,18.577808069599914
2.2290404930153063,17.68137473512671
2.2490922238697246,18.23778163238594
2.2691439547241425,19.443329909780942
2.289195685578561,19.845179335579278
2.3092474164329793,18.825100023937352
2.329299147287397,19.412418415488766
2.3493508781418155,18.515985081015558
2.369402608996234,18.825100023937352
2.3894543398506523,19.103303472566967
2.40950607070507,16.9394988721144
2.4295578015594885,17.063144849283116
2.449609532413907,17.372259792204915
2.469661263268325,17.897755195171964
2.489712994122743,16.75402990636132
2.509764724977161,15.610304617550678
2.52981645583158,15.39392415750542
2.549868186685998,17.00132186069876
2.569919917540416,15.733950594719396
2.5899716483948345,16.97041036640658
2.610023379249253,15.981242549056834
2.630075110103671,16.846764389237862
2.6501268409580887,15.857596571888115
2.6701785718125075,14.09564139723388
2.6902303026669254,15.703039100427217
2.710282033521344,15.919419560472473
2.7303337643757617,15.45574714608978
2.7503854952301805,15.022986225999267
2.7704372260845984,14.713871283077472
2.7904889569390168,14.312021857279136
2.8105406877934347,15.177543697460164
2.830592418647853,16.19762300910209
2.8506441495022714,15.919419560472473
2.8706958803566893,14.157464385818239
2.8907476112111077,16.72311841206914
2.910799342065526,18.206870138093763
2.9308510729199444,17.805020712295427
2.9509028037743623,18.608719563892095
2.9709545346287807,17.959578183756324
2.991006265483199,17.40317128649709
3.011057996337617,17.835932206587607
3.0311097271920353,15.4248356517976
3.0511614580464532,15.053897720291445
3.071213188900872,15.208455191752345
3.09126491975529,14.77569427166183
3.1113166506097083,15.733950594719396
3.131368381464126,14.559313811616573
3.151420112318545,15.51757013467414
3.171471843172963,13.199208062760672
3.1915235740273813,15.239366686044523
3.2115753048817997,14.342933351571316
3.2316270357362176,14.219287374402597
3.251678766590636,15.672127606135037
3.271730497445054,14.74478277736965
3.2917822282994726,14.188375880110419
3.3118339591538906,13.910172431480802
3.331885690008309,15.177543697460164
3.351937420862727,14.219287374402597
3.3719891517171456,13.817437948604264
3.3920408825715636,13.044650591299774
3.4120926134259815,13.446500017098108
3.4321443442804,13.631968982851186
3.452196075134818,12.580978176917082
3.4722478059892365,13.41558852280593
3.4922995368436545,13.724703465727725
3.512351267698073,13.38467702851375
3.532402998552491,12.550066682624902
3.5524547294069095,12.550066682624902
3.5725064602613275,12.7046241540858
3.5925581911157454,13.230119557052852
3.612609921970164,15.115720708875806
3.632661652824582,17.248613815036194
3.6527133836790004,19.968825312747995
3.6727651145334184,19.01056898969043
3.692816845387837,22.967240259089415
3.712868576242255,20.40158623283851
3.7329203070966734,18.825100023937352
3.7529720379510914,15.981242549056834
3.7730237688055097,14.466579328740034
3.793075499659928,13.230119557052852
3.813127230514346,11.777279325320412
3.833178961368765,11.344518405229898
3.8532306922231827,11.96274829107349
3.873282423077601,11.437252888106437
3.893334153932019,12.982827602715416
3.913385884786438,11.31360691093772
3.9334376156408557,12.271863233995285
3.9534893464952736,10.54081955363323
3.973541077349692,11.560898865275156
3.9935928082041103,13.168296568468493
4.013644539058529,12.457332199748363
4.033696269912947,11.622721853859515
4.0537480007673645,10.60264254221759
4.073799731621784,10.942668979431565
4.093851462476201,9.644386219160022
4.11390319333062,10.386262082172333
4.133954924185037,10.355350587880153
4.154006655039455,10.293527599295794
4.174058385893874,9.428005759114766
4.194110116748292,9.79894369062092
4.2141618476027105,9.304359781946047
4.234213578457128,9.737120702036561
4.254265309311547,9.520740241991305
4.274317040165966,8.747952884686816
4.294368771020383,9.335271276238228
4.314420501874801,9.026156333316433
4.334472232729219,8.531572424641558
4.354523963583638,9.304359781946047
4.3745756944380565,8.50066093034938
4.394627425292474,9.489828747699125
4.414679156146892,9.428005759114766
4.434730887001312,9.675297713452203
4.454782617855729,9.675297713452203
4.474834348710147,10.355350587880153
4.494886079564566,11.066314956600284
4.514937810418983,10.54081955363323
4.5349895412734025,9.489828747699125
4.55504127212782,10.726288519386308
4.575093002982238,9.675297713452203
4.595144733836657,8.346103458888482
4.615196464691075,9.057067827608611
4.635248195545493,7.975165527382327
4.655299926399912,8.253368976011943
4.675351657254329,8.284280470304122
4.695403388108748,7.851519550213609
4.715455118963166,7.69696207875271
4.735506849817584,8.222457481719763
4.755558580672003,8.006077021674507
4.77561031152642,7.820608055921429
4.795662042380839,8.43883794176502
4.815713773235258,7.944254033090147
4.835765504089675,7.542404607291813
4.855817234944094,7.944254033090147
4.875868965798511,8.098811504551046
4.89592069665293,8.50066093034938
4.915972427507349,8.37701495318066
4.936024158361766,7.851519550213609
4.9560758892161845,7.913342538797967
4.976127620070604,8.036988515966685
4.996179350925021,7.4187586301230946
5.0162310817794395,7.72787357304489
5.036282812633857,7.511493112999633
5.056334543488275,7.913342538797967
5.076386274342695,7.944254033090147
5.096438005197112,8.37701495318066
5.1164897360515305,6.7696172499873235
5.136541466905949,7.109643687201299
5.156593197760367,7.604227595876172
5.1766449286147855,6.5532367899420665
5.196696659469204,6.924174721448222
5.216748390323621,6.955086215740401
5.236800121178041,7.356935641538736
5.256851852032458,7.109643687201299
5.276903582886876,8.624306907518097
5.296955313741295,9.026156333316433
5.317007044595712,9.891678173497459
5.3370587754501315,11.808190819612593
5.35711050630455,14.404756340155675
5.377162237158967,17.526817263665812
5.397213968013386,18.608719563892095
5.417265698867803,19.6597103698262
5.437317429722222,19.07239197827479
5.457369160576641,16.16671151480991
5.477420891431058,13.29194254563721
5.497472622285477,11.189960933769001
5.517524353139896,9.14980231048515
5.537576083994313,7.356935641538736
5.557627814848732,7.975165527382327
5.577679545703149,6.4605023070655285
5.597731276557568,7.882431044505788
5.617783007411987,6.4605023070655285
5.637834738266404,7.542404607291813
5.657886469120823,7.078732192909119
5.677938199975241,8.655218401810277
5.697989930829659,6.707794261402965
5.718041661684078,6.491413801357708
5.738093392538495,6.831440238571683
5.7581451233929135,7.511493112999633
5.778196854247333,6.213210352728091
5.79824858510175,7.326024147246556
5.818300315956169,7.604227595876172
5.838352046810587,6.6768827671107855
5.858403777665004,8.50066093034938
5.878455508519424,9.242536793361689
5.898507239373842,9.242536793361689
5.9185589702282595,9.335271276238228
5.938610701082678,10.015324150666178
5.958662431937096,10.077147139250537
5.978714162791515,9.428005759114766
5.998765893645933,8.840687367563355
6.01881762450035,7.4187586301230946
6.038869355354769,7.975165527382327
6.058921086209188,6.9859977100325805
6.0789728170636055,7.72787357304489
6.099024547918024,6.707794261402965
6.119076278772441,8.346103458888482
6.139128009626861,6.955086215740401
6.159179740481279,7.016909204324761
6.179231471335696,7.171466675785658
6.199283202190115,7.264201158662197
6.219334933044533,7.4187586301230946
6.2393866638989515,8.562483918933738
6.25943839475337,10.200793116419256
6.279490125607787,11.591810359567335
6.299541856462206,16.599472434900424
6.319593587316625,20.52523221000723
6.339645318171042,27.974902334422502
6.359697049025461,35.64095291888303
6.379748779879879,39.844916142619454
6.399800510734297,44.11070235494023
6.419852241588716,41.29775637435189
6.439903972443134,35.70277590746739
6.459955703297552,31.406078200854434
6.48000743415197,21.05072761297428
6.500059165006388,15.826685077595934
6.520110895860807,12.890093119838877
6.540162626715225,9.489828747699125
6.5602143575696426,7.851519550213609
6.580266088424061,7.171466675785658
6.60031781927848,7.913342538797967
6.620369550132898,7.326024147246556
6.640421280987316,6.645971272818605
6.6604730118417335,7.078732192909119
6.680524742696153,7.635139090168352
6.700576473550571,8.006077021674507
6.7206282044049885,7.264201158662197
6.740679935259407,6.429590812773348
6.760731666113825,7.573316101583992
6.780783396968244,7.666050584460531
6.800835127822662,6.955086215740401
6.8208868586770794,7.913342538797967
6.840938589531498,6.275033341312451
6.860990320385917,7.573316101583992
6.8810420512403345,6.893263227156042
6.901093782094753,7.326024147246556
6.921145512949171,8.222457481719763
6.941197243803589,8.284280470304122
6.961248974658008,8.778864378978994
6.981300705512425,9.11889081619297
7.001352436366844,11.31360691093772
7.021404167221262,12.982827602715416
7.0414558980756805,13.013739097007596
7.061507628930099,13.817437948604264
7.081559359784517,14.002906914357341
7.101611090638935,12.766447142670158
7.121662821493353,13.29194254563721
7.141714552347772,12.67371265979362
7.16176628320219,11.777279325320412
7.181818014056608,11.529987370982976
7.201869744911026,10.138970127834895
7.221921475765445,9.737120702036561
7.241973206619863,10.355350587880153
7.262024937474281,8.4697494360572
7.282076668328699,8.50066093034938
7.302128399183117,8.40792644747284
7.322180130037536,7.851519550213609
7.342231860891954,9.520740241991305
7.362283591746372,12.302774728287465
7.38233532260079,14.312021857279136
7.402387053455209,19.412418415488766
7.422438784309627,22.287187384661465
7.442490515164045,25.007398882373266
7.462542246018463,27.696698885792888
7.482593976872881,28.685866703142633
7.5026457077273,25.2546908367107
7.522697438581718,20.30885174996197
7.542749169436136,19.443329909780942
7.562800900290554,15.022986225999267
7.582852631144973,12.302774728287465
7.602904361999391,9.706209207744383
7.622956092853809,8.624306907518097
7.643007823708227,8.995244839024252
7.663059554562645,7.480581618707454
7.6831112854170645,6.7696172499873235
7.703163016271482,8.098811504551046
7.7232147471259,8.902510356147713
7.743266477980318,7.820608055921429
7.763318208834737,7.511493112999633
7.783369939689155,7.882431044505788
7.803421670543573,7.326024147246556
7.823473401397991,8.253368976011943
7.84352513225241,8.067900010258866
7.863576863106828,8.315191964596302
7.883628593961246,9.582563230575664
7.903680324815664,9.984412656373998
7.923732055670082,11.128137945184642
7.943783786524501,14.312021857279136
7.963835517378919,19.845179335579278
7.983887248233337,24.049142559315698
8.003938979087756,33.94082073281316
8.023990709942174,41.39049085722843
8.044042440796591,56.135273634598086
8.064094171651009,71.71466675785658
8.084145902505428,85.40845872929212
8.104197633359847,96.32021621443151
8.124249364214265,102.50251507286742
8.144301095068682,105.34637254774795
8.164352825923102,100.74055989821319
8.184404556777519,89.30330701010675
8.204456287631938,73.32206446104992
8.224508018486356,54.651521908573464
8.244559749340775,41.45231384581279
8.264611480195192,29.984149463414173
8.28466321104961,22.31809887895364
8.30471494190403,16.444914963439526
8.324766672758447,14.559313811616573
8.344818403612866,11.808190819612593
8.364870134467283,11.684544842443874
8.3849218653217,10.47899656504887
8.40497359617612,9.706209207744383
8.425025327030538,9.211625299069508
8.445077057884957,10.231704610711434
8.465128788739376,10.138970127834895
8.485180519593792,9.551651736283484
8.505232250448211,9.551651736283484
8.52528398130263,9.242536793361689
8.545335712157048,9.79894369062092
8.565387443011467,9.057067827608611
8.585439173865883,10.880845990847206
8.605490904720302,9.79894369062092
8.625542635574721,11.25178392235336
8.645594366429139,12.055482773950029
8.665646097283558,10.819023002262846
8.685697828137974,10.386262082172333
8.705749558992393,10.664465530801948
8.725801289846812,8.686129896102457
8.74585302070123,8.43883794176502
8.765904751555649,9.428005759114766
8.785956482410068,8.006077021674507
8.806008213264484,9.644386219160022
8.826059944118903,8.964333344732072
8.84611167497332,10.231704610711434
8.86616340582774,10.046235644958358
8.886215136682159,10.664465530801948
8.906266867536575,10.880845990847206
8.926318598390994,10.138970127834895
8.946370329245411,9.8298551849131
8.96642206009983,9.304359781946047
8.98647379095425,9.582563230575664
9.006525521808667,9.366182770530408
9.026577252663085,8.902510356147713
9.046628983517502,9.11889081619297
9.066680714371921,10.293527599295794
9.08673244522634,11.715456336736054
9.106784176080758,13.38467702851375
9.126835906935176,15.146632203167984
9.146887637789593,17.805020712295427
9.166939368644012,21.390754050188256
9.186991099498432,27.573052908624167
9.207042830352849,33.84808624993662
9.227094561207267,40.988641431430096
9.247146292061686,53.10594719396448
9.267198022916103,64.94504950786926
9.287249753770523,77.5878506733707
9.30730148462494,89.9833598845347
9.32735321547936,96.50568518018459
9.347404946333777,100.46235644958357
9.367456677188194,97.64941046899523
9.387508408042613,88.68507712426316
9.407560138897031,73.60026790967953
9.42761186975145,62.44121847020271
9.447663600605868,51.900398916569486
9.467715331460285,42.626950628915615
9.487767062314704,38.1138724622574
9.507818793169124,33.84808624993662
9.527870524023541,29.860503486245456
9.547922254877959,30.478733372089046
9.567973985732376,32.58071498395726
9.588025716586795,32.14795406386674
9.608077447441215,32.33342302961982
9.628129178295632,35.42457245883778
9.648180909150051,35.88824487322047
9.668232640004467,33.81717475564444
9.688284370858886,31.993396592405844
9.708336101713305,28.90224716318789
9.728387832567723,24.141877042192238
9.748439563422142,19.226949449735688
9.768491294276558,18.2996046209703
9.788543025130977,14.899340248830548
9.808594755985396,12.364597716871824
9.828646486839814,12.055482773950029
9.848698217694233,11.25178392235336
9.868749948548652,10.169881622127075
9.888801679403068,10.819023002262846
9.908853410257487,10.880845990847206
9.928905141111905,10.138970127834895
9.948956871966324,10.973580473723745
9.969008602820743,9.273448287653869
9.989060333675159,9.304359781946047
10.009112064529578,10.50990805934105
10.029163795383996,10.015324150666178
10.049215526238415,8.871598861855533
10.069267257092834,7.480581618707454
10.08931898794725,9.057067827608611
10.109370718801669,9.397094264822586
10.129422449656087,8.160634493135404
10.149474180510506,8.902510356147713
10.169525911364925,7.913342538797967
10.189577642219342,8.747952884686816
10.20962937307376,8.50066093034938
10.22968110392818,8.871598861855533
10.249732834782597,8.655218401810277
10.269784565637016,8.593395413225918
10.289836296491433,8.222457481719763
10.30988802734585,9.613474724867844
10.32993975820027,10.386262082172333
10.349991489054688,8.284280470304122
10.370043219909107,8.624306907518097
10.390094950763524,9.242536793361689
10.410146681617944,9.613474724867844
10.430198412472361,10.757200013678487
10.450250143326778,10.386262082172333
10.470301874181198,10.169881622127075
10.490353605035615,11.035403462308103
10.510405335890034,12.73553564837798
10.530457066744452,11.870013808196951
10.55050879759887,11.31360691093772
10.570560528453289,11.900925302489131
10.590612259307708,12.333686222579646
10.610663990162125,12.055482773950029
10.630715721016543,11.808190819612593
10.65076745187096,10.664465530801948
10.67081918272538,11.128137945184642
10.690870913579799,11.15904943947682
10.710922644434216,11.15904943947682
10.730974375288636,11.93183679678131
10.751026106143051,12.828270131254518
10.77107783699747,15.703039100427217
10.79112956785189,19.288772438320045
10.811181298706307,21.23619657872736
10.831233029560726,23.678204627809542
10.851284760415142,25.22377934241852
10.871336491269561,30.23144141775161
10.89138822212398,31.993396592405844
10.911439952978398,29.304096588986223
10.931491683832817,29.984149463414173
10.951543414687237,26.676619574150962
10.971595145541652,24.110965547900058
10.991646876396072,19.937913818455815
