Energy (keV),Intensity (cps),slope,offset,liveTime
-0.016753362679535415,0.0,20.051730854418228,-16.753362679535414,135.9329071044922
0.003298368174882814,0.0
0.023350099029301043,0.0
0.043401829883719274,0.0
0.0634535607381375,0.0
0.08350529159255572,0.0
0.10355702244697396,0.0
0.12360875330139219,0.0
0.14366048415581043,0.0
0.16371221501022865,0.0
0.18376394586464687,0.0
0.2038156767190651,0.0
0.2238674075734833,0.0
0.24391913842790156,0.0
0.2639708692823198,0.0
0.28402260013673797,0.0
0.3040743309911562,0.0
0.32412606184557446,0.0
0.34417779269999266,0.0
0.3642295235544109,0.0
0.3842812544088291,0.0
0.40433298526324735,0.0
0.42438471611766554,0.007356570394182005
0.4444364469720838,0.02942628157672802
0.4644881778265021,0.022069711182546015
0.4845399086809203,0.036782851970910024
0.5045916395353385,0.1324182670952761
0.5246433703897568,0.3310456677381902
0.544695101244175,0.6473781946880165
0.5647468320985932,0.9416410104552967
0.5847985629530115,1.441887797259673
0.6048502938074297,2.3541025261382416
0.624902024661848,3.15596869910408
0.6449537555162661,4.259454258231381
0.6650054863706844,5.583636929184142
0.6850572172251026,6.8489670369834466
0.7051089480795208,8.084870863206024
0.725160678933939,9.931370032145708
0.7452124097883572,11.0789950136381
0.7652641406427755,12.851928478635964
0.7853158714971937,13.477236962141435
0.805367602351612,13.948057467369082
0.8254193332060301,15.058899596890566
0.8454710640604484,16.096176022470228
0.8655227949148666,18.501774541367745
0.8855745257692849,22.430183131860932
0.9056262566237031,31.17714533054334
0.9256779874781212,40.63033828706722
0.9457297183325396,45.24290792421933
0.9657814491869579,41.917738106049065
0.9858331800413761,32.95743536593538
1.0058849108957943,25.174183888890823
1.0259366417502125,23.65137381729515
1.0459883726046306,26.01283291382757
1.0660401034590488,30.18400832732877
1.086091834313467,32.17763890415209
1.1061435651678853,30.6621854029506
1.1261952960223034,28.035889772227623
1.1462470268767218,26.910334501917774
1.16629875773114,28.631771974156365
1.1863504885855582,29.330646161603656
1.2064022194399764,31.14771904896661
1.2264539502943947,30.404705439154228
1.2465056811488127,27.36644186635706
1.266557412003231,23.997132625821703
1.2866091428576494,21.86372721150892
1.3066608737120675,20.458622266220157
1.3267126045664859,19.877453205079778
1.346764335420904,20.370343421489974
1.3668160662753224,21.944649485844923
1.3868677971297405,25.880414646732294
1.4069195279841589,35.37774702562126
1.4269712588385768,52.02566582765514
1.4470229896929951,78.39161412040345
1.4670747205474133,117.41822006153899
1.4871264514018316,176.50619346760885
1.5071781822562498,301.95778839959456
1.5272299131106681,501.27670665956185
1.5472816439650863,710.1444532911773
1.5673333748195046,790.0515209127823
1.5873851056739228,669.2713481811021
1.6074368365283411,441.12203054633557
1.627488567382759,227.17825034273451
1.6475402982371774,102.42552959819606
1.6675920290915955,52.76132286707334
1.687643759946014,42.36648890009417
1.707695490800432,46.169835793886264
1.7277472216548504,54.04136611566101
1.7477989525092685,58.550943767294584
1.767850683363687,64.23757268199726
1.787902414218105,76.8173080560485
1.8079541450725232,97.46720115251739
1.8280058759269413,115.21124894328439
1.8480576067813597,119.83853172122487
1.8681093376357778,104.09547107767537
1.8881610684901962,78.86979119602528
1.9082127993446145,56.35868578982834
1.9282645301990327,43.55089673355747
1.948316261053451,39.387077890450456
1.9683679919078692,39.47535673518064
1.9884197227622873,41.329212474514506
2.0084714536167056,43.28606019936692
2.028523184471124,43.124215650694914
2.0485749153255424,45.331186768949514
2.0686266461799607,45.16198564988333
2.0886783770343786,45.39739590249715
2.1087301078887966,47.03055453000556
2.1287818387432154,45.52245759919825
2.1488335695976333,47.317460775378656
2.1688853004520516,48.5680777423896
2.1889370313064695,49.5906410271809
2.2089887621608884,50.98838940207548
2.2290404930153063,54.556326043253755
2.2490922238697246,59.38223622183715
2.2691439547241425,65.3704845227013
2.289195685578561,73.60248679379096
2.3092474164329793,84.15916530944214
2.329299147287397,100.92478923778293
2.3493508781418155,113.6516560197178
2.369402608996234,125.84884973327156
2.3894543398506523,131.85916774531827
2.40950607070507,131.8959505972892
2.4295578015594885,128.33537052650507
2.449609532413907,127.59971348708689
2.469661263268325,131.6752534854637
2.489712994122743,139.8189769118232
2.509764724977161,148.97790705257978
2.52981645583158,154.79695423437775
2.549868186685998,169.71607899377886
2.569919917540416,198.17864984886904
2.5899716483948345,276.9307359185874
2.610023379249253,438.8709200057159
2.630075110103671,743.9258245412611
2.6501268409580887,1167.965898632306
2.6701785718125075,1599.362543117533
2.6902303026669254,1860.0941110281317
2.710282033521344,1791.8030680589402
2.7303337643757617,1475.5220371018731
2.7503854952301805,1115.866667100709
2.7704372260845984,901.2607955616317
2.7904889569390168,897.7369983428184
2.8105406877934347,1023.828614899098
2.830592418647853,1131.374317491645
2.8506441495022714,1138.4881210628187
2.8706958803566893,1055.1308219263424
2.8907476112111077,974.2968264350706
2.910799342065526,966.4915052468435
2.9308510729199444,1003.0977995282932
2.9509028037743623,1025.881098039075
2.9709545346287807,978.1663824624103
2.991006265483199,836.9570137460868
3.011057996337617,665.7401943918948
3.0311097271920353,493.1109135220198
3.0511614580464532,364.0472425264907
3.071213188900872,293.6963598469282
3.09126491975529,270.38338826776544
3.1113166506097083,290.64338313334264
3.131368381464126,344.48612184836077
3.151420112318545,486.3575819001607
3.171471843172963,894.08078285691
3.1915235740273813,2086.220371804498
3.2115753048817997,5196.938806413965
3.2316270357362176,11746.302157523956
3.251678766590636,22797.871876732544
3.271730497445054,37154.5132637945
3.2917822282994726,50431.32046554644
3.3118339591538906,56819.64113415739
3.331885690008309,53052.63569811256
3.351937420862727,41027.195833551756
3.3719891517171456,26406.563917894586
3.3920408825715636,14168.040991866306
3.4120926134259815,6434.144745596312
3.4321443442804,2611.7811173352547
3.452196075134818,1162.3528354215453
3.4722478059892365,909.8679829228246
3.4922995368436545,1316.024234385613
3.512351267698073,2305.8507809228017
3.532402998552491,3805.5317951991688
3.5524547294069095,5580.885571856718
3.5725064602613275,6992.552577937091
3.5925581911157454,7460.687934970863
3.612609921970164,6700.033269353232
3.632661652824582,5089.069414724074
3.6527133836790004,3250.8316743370574
3.6727651145334184,1764.4366261925832
3.692816845387837,821.9422535715613
3.712868576242255,347.35518430209174
3.7329203070966734,149.88276521106417
3.7529720379510914,81.70207079778535
3.7730237688055097,60.03697098691934
3.793075499659928,54.89472828138612
3.813127230514346,55.034503118875584
3.833178961368765,52.91581084535117
3.8532306922231827,53.33513535781954
3.873282423077601,54.91679799256867
3.893334153932019,54.63724831758975
3.913385884786438,53.90894784856574
3.9334376156408557,55.25520023070104
3.9534893464952736,55.80694301026469
3.973541077349692,57.09434282924654
3.9935928082041103,58.21989809955639
4.013644539058529,56.079136114849426
4.033696269912947,57.06491654766982
4.0537480007673645,56.35868578982834
4.073799731621784,56.16005838918543
4.093851462476201,57.4401016377731
4.11390319333062,56.9472114213629
4.133954924185037,57.57987647526256
4.154006655039455,57.08698625885236
4.174058385893874,58.756927738331676
4.194110116748292,59.17625225080005
4.2141618476027105,60.699062322395726
4.234213578457128,61.68484275521612
4.254265309311547,62.52349178015286
4.274317040165966,63.61962076888598
4.294368771020383,62.21451582359722
4.314420501874801,64.42148694185182
4.334472232729219,62.77361517355505
4.354523963583638,62.229228964385584
4.3745756944380565,64.32585152672745
4.394627425292474,65.64267762728603
4.414679156146892,65.58382506413258
4.434730887001312,64.29642524515073
4.454782617855729,64.92909029905037
4.474834348710147,67.22434026203517
4.494886079564566,67.702517337657
4.514937810418983,66.16499412527295
4.5349895412734025,65.98107986541841
4.55504127212782,64.66425376485982
4.575093002982238,63.494559072184884
4.595144733836657,63.266505389965246
4.615196464691075,62.07474098610776
4.635248195545493,61.19195253880592
4.655299926399912,60.47836521057027
4.675351657254329,61.280231383536105
4.695403388108748,60.588713766483
4.715455118963166,62.170376401232126
4.735506849817584,64.59804463131219
4.755558580672003,68.5190966514112
4.77561031152642,71.82219675839892
4.795662042380839,76.68488978895323
4.815713773235258,84.39457556205596
4.835765504089675,92.964980071278
4.855817234944094,101.52802801010586
4.875868965798511,107.17051750244346
4.89592069665293,106.68498385642744
4.915972427507349,101.60895028444186
4.936024158361766,94.4362941501144
4.9560758892161845,88.7938046577768
4.976127620070604,83.09981917267993
4.996179350925021,79.75257964332712
5.0162310817794395,79.81878877687475
5.036282812633857,79.1493408710042
5.056334543488275,80.05419902948859
5.076386274342695,84.41664527323852
5.096438005197112,84.57848982191051
5.1164897360515305,90.95663635366631
5.136541466905949,93.19303375349764
5.156593197760367,92.07483505358198
5.1766449286147855,92.91348407851872
5.196696659469204,93.6197148363602
5.216748390323621,91.92034707530415
5.236800121178041,92.64864754432817
5.256851852032458,93.31073887980456
5.276903582886876,92.50151613644454
5.296955313741295,95.44414429411734
5.317007044595712,98.39412902218432
5.3370587754501315,100.74087497792839
5.35711050630455,104.42651674541356
5.377162237158967,109.75267371080133
5.397213968013386,112.57024017177305
5.417265698867803,110.40005190548935
5.437317429722222,110.5030438910079
5.457369160576641,107.01602952416563
5.477420891431058,102.9772723777597
5.497472622285477,99.78452082668473
5.517524353139896,97.25386061108611
5.537576083994313,93.87719480015657
5.557627814848732,94.73791353627587
5.577679545703149,94.33330216459585
5.597731276557568,94.2744496014424
5.617783007411987,95.17930775992679
5.637834738266404,98.05572678405194
5.657886469120823,99.97579165693345
5.677938199975241,99.38726602539889
5.697989930829659,99.78452082668473
5.718041661684078,100.40982931019019
5.738093392538495,103.53637172771754
5.7581451233929135,100.25534133191236
5.778196854247333,103.05083808170153
5.79824858510175,102.22690219755314
5.818300315956169,104.87526753945866
5.838352046810587,106.14795421765216
5.858403777665004,109.1567915088726
5.878455508519424,115.94690598270259
5.898507239373842,122.36919193682347
5.9185589702282595,133.3157686833663
5.938610701082678,149.66206809923872
5.958662431937096,167.62681300183118
5.978714162791515,182.62686003556828
5.998765893645933,192.19775811839907
6.01881762450035,196.44985580623626
6.038869355354769,196.53813465096644
6.058921086209188,185.53270534127017
6.0789728170636055,177.41840819648743
6.099024547918024,169.89999325363343
6.119076278772441,169.9514892463927
6.139128009626861,168.32568718927845
6.159179740481279,170.49587545556216
6.179231471335696,172.77641227775857
6.199283202190115,174.85832169931209
6.219334933044533,175.78524956897903
6.2393866638989515,178.9338616976889
6.25943839475337,178.735234297046
6.279490125607787,177.76416700501397
6.299541856462206,177.68324473067798
6.319593587316625,173.7474795697906
6.339645318171042,169.5027384523476
6.359697049025461,167.62681300183118
6.379748779879879,167.38404617882316
6.399800510734297,163.57334271463688
6.419852241588716,162.88182509758377
6.439903972443134,162.50664000748048
6.459955703297552,172.29087863174257
6.48000743415197,204.6082923733841
6.500059165006388,268.04399888241556
6.520110895860807,388.89038074764335
6.540162626715225,573.4078793745164
6.5602143575696426,826.1134289850625
6.580266088424061,1101.1608828827393
6.60031781927848,1352.152351591441
6.620369550132898,1508.016008532975
6.640421280987316,1519.6026069038116
6.6604730118417335,1382.4540650450765
6.680524742696153,1140.6583093291024
6.700576473550571,862.7123666961179
6.7206282044049885,597.3461594371846
6.740679935259407,401.9115103453455
6.760731666113825,283.00726306418176
6.780783396968244,225.94234651651192
6.800835127822662,221.2194283234471
6.8208868586770794,259.09105271269607
6.840938589531498,317.2006022563397
6.860990320385917,383.6525026269858
6.8810420512403345,437.3113270821493
6.901093782094753,464.6556992373238
6.921145512949171,455.08480115449305
6.941197243803589,417.9194075230855
6.961248974658008,349.06926520393614
6.981300705512425,279.52760526773363
7.001352436366844,212.9138603484156
7.021404167221262,165.41984188357657
7.0414558980756805,133.9337205964776
7.061507628930099,114.74778500845092
7.081559359784517,106.81004555312853
7.101611090638935,105.61092457887686
7.121662821493353,105.6403508604536
7.141714552347772,109.78209999237806
7.16176628320219,111.74630428762467
7.181818014056608,112.4672481862545
7.201869744911026,110.08371937853953
7.221921475765445,104.00719223294519
7.241973206619863,101.27054804630949
7.262024937474281,97.43041830054648
7.282076668328699,93.08268519758491
7.302128399183117,92.23667960225399
7.322180130037536,87.8963030696866
7.342231860891954,88.52896812358625
7.362283591746372,87.40341285327641
7.38233532260079,86.40291927966766
7.402387053455209,89.11013718472663
7.422438784309627,87.91837278086915
7.442490515164045,89.448539422859
7.462542246018463,90.36075415173757
7.482593976872881,88.82323093935354
7.5026457077273,89.42646971167646
7.522697438581718,89.11013718472663
7.542749169436136,87.9772253440226
7.562800900290554,86.8737397848953
7.582852631144973,85.84381992970982
7.602904361999391,87.68296252825532
7.622956092853809,86.93994891844294
7.643007823708227,85.62312281788437
7.663059554562645,86.5059112651862
7.6831112854170645,85.87324621128654
7.703163016271482,85.8953159224691
7.7232147471259,86.37349299809092
7.743266477980318,84.71826465939998
7.763318208834737,84.51228068836288
7.783369939689155,85.26265086856944
7.803421670543573,84.07088646471196
7.823473401397991,85.23322458699272
7.84352513225241,83.21752429898685
7.863576863106828,83.07039289110321
7.883628593961246,83.5632831075134
7.903680324815664,82.98211404637301
7.923732055670082,83.87961563446322
7.943783786524501,83.31315971411121
7.963835517378919,83.00418375755557
7.983887248233337,82.89383520164283
8.003938979087756,80.06891217027695
8.023990709942174,81.63586166423771
8.044042440796591,83.39408198844721
8.064094171651009,81.98162047276426
8.084145902505428,83.09246260228575
8.104197633359847,80.9443440471846
8.124249364214265,80.06891217027695
8.144301095068682,79.87764134002822
8.164352825923102,79.98798989594094
8.184404556777519,79.74522307293294
8.204456287631938,78.98013975193801
8.224508018486356,79.8040756360864
8.244559749340775,78.71530321774746
8.264611480195192,77.88401076320488
8.28466321104961,77.51618224349579
8.30471494190403,76.58925437382885
8.324766672758447,74.56619751542881
8.344818403612866,74.72068549370663
8.364870134467283,74.94138260553208
8.3849218653217,74.4043529667568
8.40497359617612,73.89674960955824
8.425025327030538,73.21258856289931
8.445077057884957,72.99189145107385
8.465128788739376,71.23367112686435
8.485180519593792,71.47643794987236
8.505232250448211,71.77070076563965
8.52528398130263,69.62993878093268
8.545335712157048,69.64465192172105
8.565387443011467,68.13655499091374
8.585439173865883,68.11448527973118
8.605490904720302,67.40825452188972
8.625542635574721,66.17970726606131
8.645594366429139,66.5548923561646
8.665646097283558,65.12036112929911
8.685697828137974,64.69368004643655
8.705749558992393,66.3930478074926
8.725801289846812,63.369497375483796
8.74585302070123,63.97273614780672
8.765904751555649,61.1993091092001
8.785956482410068,61.390579939448834
8.806008213264484,60.19881553559135
8.826059944118903,58.83049344227349
8.84611167497332,57.969774706154205
8.86616340582774,57.09434282924654
8.886215136682159,56.711801168749076
8.906266867536575,55.777516728687964
8.926318598390994,53.90159127817155
8.946370329245411,54.26941979788065
8.96642206009983,53.931017559748284
8.98647379095425,53.401344491367176
9.006525521808667,51.87117784937732
9.026577252663085,51.2237996546893
9.046628983517502,50.936893409316205
9.066680714371921,49.737772435064535
9.08673244522634,48.854983987762694
9.106784176080758,47.317460775378656
9.126835906935176,46.70686543266155
9.146887637789593,46.22133178664554
9.166939368644012,45.82407698535971
9.186991099498432,46.28754092019318
9.207042830352849,44.065856661150214
9.227094561207267,44.44104175125349
9.247146292061686,43.44054817764474
9.267198022916103,42.73431741980327
9.287249753770523,42.4768374560069
9.30730148462494,41.652901571858514
9.32735321547936,40.8804616804694
9.347404946333777,39.813758973313014
9.367456677188194,38.90154424443445
9.387508408042613,38.386584316841706
9.407560138897031,37.22424619456095
9.42761186975145,36.27524861371147
9.447663600605868,34.987848794729615
9.467715331460285,33.94321579875577
9.487767062314704,33.65630955338268
9.507818793169124,32.832373669234286
9.527870524023541,32.773521106080835
9.547922254877959,30.86081280359351
9.567973985732376,29.963311215503307
9.588025716586795,29.985380926685853
9.608077447441215,28.491997136666907
9.628129178295632,27.822549230796344
9.648180909150051,27.528286415029065
9.668232640004467,27.086892191378144
9.688284370858886,25.814205513184657
9.708336101713305,24.894634213911907
9.728387832567723,23.489529268623144
9.748439563422142,22.95985620024204
9.768491294276558,22.96721277063622
9.788543025130977,22.106494034516928
9.808594755985396,22.592027680532937
9.828646486839814,23.187909882461682
9.848698217694233,24.931417065882815
9.868749948548652,26.726420242063224
9.888801679403068,29.05109648662474
9.908853410257487,31.846593236413902
9.928905141111905,32.57489370543792
9.948956871966324,33.18548904815503
9.969008602820743,33.18548904815503
9.989060333675159,30.220791179299678
10.009112064529578,26.56457569339122
10.029163795383996,23.533668690988236
10.049215526238415,20.061367464934328
10.069267257092834,17.64105580524845
10.08931898794725,15.294309849504389
10.109370718801669,14.38209512062582
10.129422449656087,14.109902016041087
10.149474180510506,13.786212918697078
10.169525911364925,14.771993351517466
10.189577642219342,14.860272196247651
10.20962937307376,15.985827466557497
10.22968110392818,15.6989212211844
10.249732834782597,14.63957508442219
10.269784565637016,13.911274615398172
10.289836296491433,12.278115987889766
10.30988802734585,11.321761836646106
10.32993975820027,9.94608317293407
10.349991489054688,9.225139274304235
10.370043219909107,8.460055953309306
10.390094950763524,7.9524525961107475
10.410146681617944,7.878886892168928
10.430198412472361,6.959315592896177
10.450250143326778,7.319787542211095
10.470301874181198,7.231508697480911
10.490353605035615,7.496345231671463
10.510405335890034,7.66554635073765
10.530457066744452,6.826897325800901
10.55050879759887,6.944602452107813
10.570560528453289,6.620913354763805
10.590612259307708,7.187369275115819
10.610663990162125,6.267797975843068
10.630715721016543,6.356076820573253
10.65076745187096,6.363433390967435
10.67081918272538,6.3487202501790705
10.690870913579799,5.907326026528151
10.710922644434216,6.208945412689612
10.730974375288636,6.032387723229244
10.751026106143051,6.208945412689612
10.77107783699747,6.407572813332527
10.79112956785189,6.436999094909255
10.811181298706307,6.554704221216166
10.831233029560726,6.414929383726709
10.851284760415142,6.459068806091801
10.871336491269561,6.091240286382701
10.89138822212398,5.914682596922332
10.911439952978398,6.370789961361616
10.931491683832817,6.12802313835361
10.951543414687237,6.444355665303437
10.971595145541652,5.701342055491054
10.991646876396072,6.231015123872158
11.011698607250489,5.841116892980512
