Energy (keV),Intensity (cps),slope,offset,liveTime
-0.016753362679535415,0.0,20.051730854418228,-16.753362679535414,172.83229064941406
0.003298368174882814,0.0
0.023350099029301043,0.0
0.043401829883719274,0.0
0.0634535607381375,0.0
0.08350529159255572,0.0
0.10355702244697396,0.0
0.12360875330139219,0.0
0.14366048415581043,0.0
0.16371221501022865,0.0
0.18376394586464687,0.0
0.2038156767190651,0.0
0.2238674075734833,0.0
0.24391913842790156,0.0
0.2639708692823198,0.0
0.28402260013673797,0.0
0.3040743309911562,0.0
0.32412606184557446,0.0
0.34417779269999266,0.0
0.3642295235544109,0.0
0.3842812544088291,0.0
0.40433298526324735,0.0
0.42438471611766554,0.0
0.4444364469720838,0.0
0.4644881778265021,0.0
0.4845399086809203,0.02892977915881688
0.5045916395353385,0.05207360248587038
0.5246433703897568,0.06943146998116051
0.544695101244175,0.16200676328937452
0.5647468320985932,0.26036801242935187
0.5847985629530115,0.37030117323285605
0.6048502938074297,0.5554517598492841
0.624902024661848,0.9604686680727204
0.6449537555162661,1.0299001380538808
0.6650054863706844,1.3191979296420495
0.6850572172251026,1.4291310904455536
0.7051089480795208,1.973010938631311
0.725160678933939,2.2912385093782968
0.7452124097883572,2.343312111864167
0.7652641406427755,2.499532919321778
0.7853158714971937,2.7946166667417103
0.805367602351612,2.881406004218161
0.8254193332060301,2.9624093858628484
0.8454710640604484,3.0897004141616424
0.8655227949148666,2.7772587992464204
0.8855745257692849,3.0144829883487185
0.9056262566237031,2.8871919600499245
0.9256779874781212,3.0781285024981155
0.9457297183325396,2.9855532091899017
0.9657814491869579,3.141774016647513
0.9858331800413761,3.008697032516955
1.0058849108957943,2.8929779158816875
1.0259366417502125,3.1359880608157495
1.0459883726046306,3.2285633541239633
1.0660401034590488,3.0434127675075353
1.086091834313467,3.1070582816569328
1.1061435651678853,3.0491987233392988
1.1261952960223034,3.0897004141616424
1.1462470268767218,2.8293324017322905
1.16629875773114,3.1244161491522227
1.1863504885855582,3.2112054866286734
1.2064022194399764,3.1822757074698567
1.2264539502943947,3.066556590834589
1.2465056811488127,3.2112054866286734
1.266557412003231,3.008697032516955
1.2866091428576494,3.216991442460437
1.3066608737120675,2.6673256384429163
1.3267126045664859,2.881406004218161
1.346764335420904,2.9624093858628484
1.3668160662753224,3.130202104983986
1.3868677971297405,3.0376268116757723
1.4069195279841589,3.378998205749811
1.4269712588385768,3.6914398206650336
1.4470229896929951,4.999065838643556
1.4670747205474133,5.07428326445648
1.4871264514018316,5.097427087783534
1.5071781822562498,4.536189372102486
1.5272299131106681,4.07909886139318
1.5472816439650863,3.141774016647513
1.5673333748195046,2.898763871713451
1.5873851056739228,2.9219076950405047
1.6074368365283411,2.846690269227581
1.627488567382759,2.638395859284099
1.6475402982371774,2.5805363009664655
1.6675920290915955,3.0434127675075353
1.687643759946014,3.0260549000122454
1.707695490800432,3.20541953079691
1.7277472216548504,3.2112054866286734
1.7477989525092685,3.2574931332827806
1.767850683363687,3.066556590834589
1.787902414218105,2.8119745342370006
1.8079541450725232,2.7946166667417103
1.8280058759269413,2.8640481367228707
1.8480576067813597,3.1012723258251693
1.8681093376357778,3.234349309955727
1.8881610684901962,3.1359880608157495
1.9082127993446145,2.933479606704031
1.9282645301990327,3.159131884142803
1.948316261053451,3.3732122499180477
1.9683679919078692,3.0434127675075353
1.9884197227622873,3.020268944180482
2.0084714536167056,3.1996335749651466
2.028523184471124,3.008697032516955
2.0485749153255424,3.130202104983986
2.0686266461799607,3.066556590834589
2.0886783770343786,3.2112054866286734
2.1087301078887966,2.933479606704031
2.1287818387432154,3.1244161491522227
2.1488335695976333,3.2459212216192537
2.1688853004520516,3.344282470759231
2.1889370313064695,3.946021877262622
2.2089887621608884,4.7734135612047845
2.2290404930153063,6.300905900790315
2.2490922238697246,9.22281359583082
2.2691439547241425,15.089772809238884
2.289195685578561,25.56235286473059
2.3092474164329793,39.3850013468133
2.329299147287397,49.19798243748398
2.3493508781418155,49.359989200773356
2.369402608996234,41.42744375542577
2.3894543398506523,28.738842616368686
2.40950607070507,17.357867495290126
2.4295578015594885,8.974017495064995
2.449609532413907,5.4619423051846265
2.469661263268325,3.622008350683873
2.489712994122743,3.5062892340486056
2.509764724977161,3.3616403382545212
2.52981645583158,3.4889313665533153
2.549868186685998,3.3500684265909944
2.569919917540416,3.6277943065156366
2.5899716483948345,4.2121758455237375
2.610023379249253,4.252677536346081
2.630075110103671,4.819701207858892
2.6501268409580887,5.936390683389223
2.6701785718125075,7.128297584732478
2.6902303026669254,8.169769634449887
2.710282033521344,9.315388889139035
2.7303337643757617,8.493783161028635
2.7503854952301805,7.446525155479464
2.7704372260845984,5.404082746866993
2.7904889569390168,4.310537094663715
2.8105406877934347,3.454215631562735
2.830592418647853,3.344282470759231
2.8506441495022714,3.1822757074698567
2.8706958803566893,3.7087976881603235
2.8907476112111077,4.588262974588357
2.910799342065526,5.768597964268086
2.9308510729199444,6.538130089892614
2.9509028037743623,7.272946480526563
2.9709545346287807,7.110939717237189
2.991006265483199,6.41083906159382
3.011057996337617,5.12635686694235
3.0311097271920353,4.495687681280143
3.0511614580464532,3.512075189880369
3.071213188900872,3.6740819531697433
3.09126491975529,3.20541953079691
3.1113166506097083,3.6335802623473996
3.131368381464126,3.65093812984269
3.151420112318545,3.5583628365344757
3.171471843172963,3.6451521740109265
3.1915235740273813,3.7550853348144306
3.2115753048817997,3.9691657005896754
3.2316270357362176,3.68565386483327
3.251678766590636,3.714583643992087
3.271730497445054,3.824516804795591
3.2917822282994726,3.6567240856744534
3.3118339591538906,4.136958419710814
3.331885690008309,4.0096673914120196
3.351937420862727,4.322109006327241
3.3719891517171456,4.067526949729653
3.3920408825715636,4.304751138831952
3.4120926134259815,4.640336577074227
3.4321443442804,4.698196135391861
3.452196075134818,4.993279882811793
3.4722478059892365,5.178430469428221
3.4922995368436545,5.560303554324604
3.512351267698073,5.676022670959871
3.532402998552491,5.919032815893933
3.5524547294069095,5.6644507592963445
3.5725064602613275,5.942176639220986
3.5925581911157454,5.93060472755746
3.612609921970164,5.357795100212885
3.632661652824582,5.05692539696119
3.6527133836790004,4.97013605948474
3.6727651145334184,4.7734135612047845
3.692816845387837,4.379968564644876
3.712868576242255,4.449400034626036
3.7329203070966734,4.570905107093067
3.7529720379510914,4.5188315046071965
3.7730237688055097,5.05692539696119
3.793075499659928,5.7280962734457415
3.813127230514346,6.4050531057620566
3.833178961368765,7.8573280195346635
3.8532306922231827,8.840940510934438
3.873282423077601,11.404118944405614
3.893334153932019,15.240207660864732
3.913385884786438,25.48713543891767
3.9334376156408557,52.26453902831857
3.9534893464952736,131.11554510358985
3.973541077349692,328.1852007334504
3.9935928082041103,745.8328505376262
4.013644539058529,1494.8132610477317
4.033696269912947,2559.539067252996
4.0537480007673645,3745.688942543647
4.073799731621784,4664.313578041055
4.093851462476201,4938.47530917333
4.11390319333062,4440.9351812441655
4.133954924185037,3393.26637283094
4.154006655039455,2217.6122214191078
4.174058385893874,1235.440433021443
4.194110116748292,586.8405702366003
4.2141618476027105,247.92242143522887
4.234213578457128,97.30820517859645
4.254265309311547,44.250990201326296
4.274317040165966,30.42834171924359
4.294368771020383,31.840114942193853
4.314420501874801,41.867176398639785
4.334472232729219,67.79404448077148
4.354523963583638,121.65550731865673
4.3745756944380565,213.90100114446022
4.394627425292474,351.06865604807456
4.414679156146892,519.3184656799218
4.434730887001312,671.2923815570185
4.454782617855729,750.4153275563827
4.474834348710147,729.7536792811558
4.494886079564566,607.8320179942378
4.514937810418983,436.38257478742554
4.5349895412734025,271.34975659803877
4.55504127212782,144.55632050077617
4.575093002982238,66.37648530198945
4.595144733836657,26.661684472765636
4.615196464691075,9.778265355680105
4.635248195545493,3.477359454889789
4.655299926399912,1.3134119738102863
4.675351657254329,0.8794652864280331
4.695403388108748,0.7232444789704219
4.715455118963166,0.5785955831763375
4.735506849817584,0.7348163906339487
4.755558580672003,0.6422410973257346
4.77561031152642,0.6422410973257346
4.795662042380839,0.5728096273445742
4.815713773235258,0.6075253623351544
4.835765504089675,0.5554517598492841
4.855817234944094,0.6017394065033911
4.875868965798511,0.5785955831763375
4.89592069665293,0.7058866114751318
4.915972427507349,0.6248832298304445
4.936024158361766,0.6422410973257346
4.9560758892161845,0.7753180814562923
4.976127620070604,0.6133113181669178
4.996179350925021,0.7984619047833458
5.0162310817794395,0.5265219806904672
5.036282812633857,0.4860202898681235
5.056334543488275,0.584381539008101
5.076386274342695,0.5207360248587037
5.096438005197112,0.4802343340363602
5.1164897360515305,0.4918062456998869
5.136541466905949,0.4744483782045968
5.156593197760367,0.5149500690269404
5.1766449286147855,0.5149500690269404
5.196696659469204,0.4860202898681235
5.216748390323621,0.5149500690269404
5.236800121178041,0.4802343340363602
5.256851852032458,0.4860202898681235
5.276903582886876,0.4686624223728334
5.296955313741295,0.4455185990457799
5.317007044595712,0.6653849206527882
5.3370587754501315,0.630669185662208
5.35711050630455,0.8447495514374528
5.377162237158967,0.9257529330821401
5.397213968013386,1.0877596963715146
5.417265698867803,0.8794652864280331
5.437317429722222,1.139833298857385
5.457369160576641,0.8331776397739261
5.477420891431058,0.7406023464657121
5.497472622285477,0.6364551414939713
5.517524353139896,0.4686624223728334
5.537576083994313,0.5728096273445742
5.557627814848732,0.4802343340363602
5.577679545703149,0.4050169082234363
5.597731276557568,0.6075253623351544
5.617783007411987,0.4686624223728334
5.637834738266404,0.5207360248587037
5.657886469120823,0.584381539008101
5.677938199975241,0.5207360248587037
5.697989930829659,0.5091641131951771
5.718041661684078,0.4686624223728334
5.738093392538495,0.5033781573634136
5.7581451233929135,0.5554517598492841
5.778196854247333,0.6133113181669178
5.79824858510175,0.630669185662208
5.818300315956169,0.38765904072814616
5.838352046810587,0.6248832298304445
5.858403777665004,0.5959534506716276
5.878455508519424,0.7637461697927656
5.898507239373842,0.7348163906339487
5.9185589702282595,0.6885287439798417
5.938610701082678,0.7058866114751318
5.958662431937096,0.6943146998116051
5.978714162791515,0.630669185662208
5.998765893645933,0.5901674948398643
6.01881762450035,0.5612377156810474
6.038869355354769,0.4570905107093067
6.058921086209188,0.5033781573634136
6.0789728170636055,0.4223747757187264
6.099024547918024,0.4513045548775433
6.119076278772441,0.538093892353994
6.139128009626861,0.4686624223728334
6.159179740481279,0.630669185662208
6.179231471335696,0.5207360248587037
6.199283202190115,0.5033781573634136
6.219334933044533,0.5670236715128107
6.2393866638989515,0.5438798481857573
6.25943839475337,0.6248832298304445
6.279490125607787,0.8216057281103993
6.299541856462206,1.0588299172126978
6.319593587316625,1.5737799862396382
6.339645318171042,2.216021083565373
6.359697049025461,2.7367571084240767
6.379748779879879,2.933479606704031
6.399800510734297,3.1707037958063298
6.419852241588716,3.130202104983986
6.439903972443134,2.7830447550781834
6.459955703297552,2.26230873021948
6.48000743415197,1.8920075569866237
6.500059165006388,1.2960541063149962
6.520110895860807,0.8563214631009796
6.540162626715225,0.5901674948398643
6.5602143575696426,0.5496658040175206
6.580266088424061,0.43394668738225317
6.60031781927848,0.6017394065033911
6.620369550132898,0.6075253623351544
6.640421280987316,0.4513045548775433
6.6604730118417335,0.5207360248587037
6.680524742696153,0.5091641131951771
6.700576473550571,0.4513045548775433
6.7206282044049885,0.5728096273445742
6.740679935259407,0.5438798481857573
6.760731666113825,0.5901674948398643
6.780783396968244,0.5901674948398643
6.800835127822662,0.6827427881480783
6.8208868586770794,0.5438798481857573
6.840938589531498,0.5149500690269404
6.860990320385917,0.6885287439798417
6.8810420512403345,0.6364551414939713
6.901093782094753,0.6422410973257346
6.921145512949171,0.7637461697927656
6.941197243803589,0.6075253623351544
6.961248974658008,0.6885287439798417
6.981300705512425,0.7290304348021853
7.001352436366844,0.8852512422597965
7.021404167221262,0.8447495514374528
7.0414558980756805,0.8968231539233232
7.061507628930099,0.8100338164468726
7.081559359784517,0.9662546239044837
7.101611090638935,0.7463883022974754
7.121662821493353,0.7811040372880557
7.141714552347772,0.6711708764845515
7.16176628320219,0.5785955831763375
7.181818014056608,0.584381539008101
7.201869744911026,0.4975922015316503
7.221921475765445,0.5496658040175206
7.241973206619863,0.584381539008101
7.262024937474281,0.5554517598492841
7.282076668328699,0.46287646654107006
7.302128399183117,0.4513045548775433
7.322180130037536,0.4802343340363602
7.342231860891954,0.584381539008101
7.362283591746372,0.5496658040175206
7.38233532260079,0.6248832298304445
7.402387053455209,0.676956832316315
7.422438784309627,0.6943146998116051
7.442490515164045,0.7637461697927656
7.462542246018463,0.8389635956056894
7.482593976872881,0.7406023464657121
7.5026457077273,0.7579602139610022
7.522697438581718,0.6711708764845515
7.542749169436136,0.7174585231386585
7.562800900290554,0.6653849206527882
7.582852631144973,0.6653849206527882
7.602904361999391,0.5323079365222305
7.622956092853809,0.6827427881480783
7.643007823708227,0.6885287439798417
7.663059554562645,0.676956832316315
7.6831112854170645,0.6538130089892614
7.703163016271482,0.7406023464657121
7.7232147471259,0.7521742581292388
7.743266477980318,0.7348163906339487
7.763318208834737,0.7406023464657121
7.783369939689155,0.7232444789704219
7.803421670543573,0.9488967564091936
7.823473401397991,0.9026091097550866
7.84352513225241,0.8273916839421627
7.863576863106828,0.9431108005774302
7.883628593961246,1.0993316080350413
7.903680324815664,1.139833298857385
7.923732055670082,1.232408592165599
7.943783786524501,1.463846825436134
7.963835517378919,1.4696327812678973
7.983887248233337,2.129231746088922
8.003938979087756,2.31438233270535
8.023990709942174,2.9971251208534286
8.044042440796591,3.7087976881603235
8.064094171651009,4.460971946289562
8.084145902505428,5.184216425259985
8.104197633359847,6.231474430809155
8.124249364214265,8.256558971926337
8.144301095068682,8.864084334261491
8.164352825923102,9.917128295642426
8.184404556777519,10.912312698705726
8.204456287631938,10.55936939296816
8.224508018486356,9.506325431587225
8.244559749340775,7.579602139610022
8.264611480195192,5.57187546598813
8.28466321104961,3.8303027606273545
8.30471494190403,2.881406004218161
8.324766672758447,1.7473586611925394
8.344818403612866,1.4696327812678973
8.364870134467283,1.157191166352675
8.3849218653217,1.0877596963715146
8.40497359617612,1.0067563147268273
8.425025327030538,1.3191979296420495
8.445077057884957,1.5795659420714014
8.465128788739376,2.1176598344253956
8.485180519593792,2.5168907868170685
8.505232250448211,3.0434127675075353
8.52528398130263,3.2632790891145436
8.545335712157048,3.6335802623473996
8.565387443011467,3.726155555655614
8.585439173865883,3.66829599733798
8.605490904720302,3.083914458329879
8.625542635574721,2.713613285097023
8.645594366429139,1.880435645323097
8.665646097283558,1.4291310904455536
8.685697828137974,1.2671243271561792
8.705749558992393,1.1803349896797286
8.725801289846812,1.1340473430256215
8.74585302070123,0.9488967564091936
8.765904751555649,0.8331776397739261
8.785956482410068,0.9083950655868499
8.806008213264484,1.0530439613809344
8.826059944118903,1.0877596963715146
8.84611167497332,1.3307698413055764
8.86616340582774,1.2150507246703088
8.886215136682159,1.249766459660889
8.906266867536575,1.35391366463263
8.926318598390994,1.4117732229502635
8.946370329245411,1.3770574879596833
8.96642206009983,1.2034788130067822
8.98647379095425,1.0414720497174075
9.006525521808667,0.972040579736247
9.026577252663085,0.8389635956056894
9.046628983517502,0.584381539008101
9.066680714371921,0.6653849206527882
9.08673244522634,0.5265219806904672
9.106784176080758,0.6133113181669178
9.126835906935176,0.6133113181669178
9.146887637789593,0.5612377156810474
9.166939368644012,0.7001006556433684
9.186991099498432,0.7637461697927656
9.207042830352849,0.6364551414939713
9.227094561207267,0.7926759489515824
9.247146292061686,0.8563214631009796
9.267198022916103,0.8794652864280331
9.287249753770523,0.9257529330821401
9.30730148462494,1.000970358895064
9.32735321547936,0.9836124913997738
9.347404946333777,1.000970358895064
9.367456677188194,1.0414720497174075
9.387508408042613,0.8389635956056894
9.407560138897031,0.8505355072692162
9.42761186975145,0.7521742581292388
9.447663600605868,0.6595989648210248
9.467715331460285,0.8273916839421627
9.487767062314704,0.7637461697927656
9.507818793169124,0.538093892353994
9.527870524023541,0.7232444789704219
9.547922254877959,0.6885287439798417
9.567973985732376,0.6885287439798417
9.588025716586795,0.9199669772503767
9.608077447441215,0.7811040372880557
9.628129178295632,0.6885287439798417
9.648180909150051,0.7174585231386585
9.668232640004467,0.7463883022974754
9.688284370858886,0.7406023464657121
9.708336101713305,0.7579602139610022
9.728387832567723,0.6364551414939713
9.748439563422142,0.6653849206527882
9.768491294276558,0.6885287439798417
9.788543025130977,0.5728096273445742
9.808594755985396,0.7232444789704219
9.828646486839814,0.5496658040175206
9.848698217694233,0.5670236715128107
9.868749948548652,0.5670236715128107
9.888801679403068,0.5612377156810474
9.908853410257487,0.6133113181669178
9.928905141111905,0.5959534506716276
9.948956871966324,0.5496658040175206
9.969008602820743,0.6133113181669178
9.989060333675159,0.5496658040175206
10.009112064529578,0.6480270531574981
10.029163795383996,0.6133113181669178
10.049215526238415,0.5612377156810474
10.069267257092834,0.6364551414939713
10.08931898794725,0.6364551414939713
10.109370718801669,0.6422410973257346
10.129422449656087,0.5554517598492841
10.149474180510506,0.584381539008101
10.169525911364925,0.6017394065033911
10.189577642219342,0.6017394065033911
10.20962937307376,0.7232444789704219
10.22968110392818,0.5959534506716276
10.249732834782597,0.7290304348021853
10.269784565637016,0.676956832316315
10.289836296491433,0.5265219806904672
10.30988802734585,0.5670236715128107
10.32993975820027,0.6364551414939713
10.349991489054688,0.5785955831763375
10.370043219909107,0.6595989648210248
10.390094950763524,0.6480270531574981
10.410146681617944,0.6190972739986812
10.430198412472361,0.6653849206527882
10.450250143326778,0.538093892353994
10.470301874181198,0.7001006556433684
10.490353605035615,0.6133113181669178
10.510405335890034,0.6248832298304445
10.530457066744452,0.6190972739986812
10.55050879759887,0.6595989648210248
10.570560528453289,0.6480270531574981
10.590612259307708,0.6711708764845515
10.610663990162125,0.676956832316315
10.630715721016543,0.8042478606151092
10.65076745187096,0.6538130089892614
10.67081918272538,0.6422410973257346
10.690870913579799,0.6711708764845515
10.710922644434216,0.6075253623351544
10.730974375288636,0.7926759489515824
10.751026106143051,0.6653849206527882
10.77107783699747,0.7406023464657121
10.79112956785189,0.7174585231386585
10.811181298706307,0.7753180814562923
10.831233029560726,0.7348163906339487
10.851284760415142,0.8158197722786359
10.871336491269561,0.8794652864280331
10.89138822212398,0.7868899931198191
10.911439952978398,0.8794652864280331
10.931491683832817,0.9026091097550866
