Energy (keV),Intensity (cps),slope,offset,liveTime
-0.016753362679535415,0.0,20.051730854418228,-16.753362679535414,129.8516082763672
0.003298368174882814,0.0
0.023350099029301043,0.0
0.043401829883719274,0.0
0.0634535607381375,0.0
0.08350529159255572,0.0
0.10355702244697396,0.0
0.12360875330139219,0.0
0.14366048415581043,0.0
0.16371221501022865,0.0
0.18376394586464687,0.0
0.2038156767190651,0.0
0.2238674075734833,0.0
0.24391913842790156,0.0
0.2639708692823198,0.0
0.28402260013673797,0.0
0.3040743309911562,0.0
0.32412606184557446,0.0
0.34417779269999266,0.0
0.3642295235544109,0.0
0.3842812544088291,0.0
0.40433298526324735,0.015402196603859832
0.42438471611766554,0.0
0.4444364469720838,0.015402196603859832
0.4644881778265021,0.05390768811350941
0.4845399086809203,0.17712526094438807
0.5045916395353385,0.30804393207719666
0.5246433703897568,0.6545933556640429
0.544695101244175,1.286083416422296
0.5647468320985932,2.0946987381249373
0.5847985629530115,3.1035426156777564
0.6048502938074297,4.697669964177249
0.624902024661848,6.807770898906046
0.6449537555162661,8.763849867596244
0.6650054863706844,11.228201324213817
0.6850572172251026,13.292095669131035
0.7051089480795208,15.540816373294572
0.725160678933939,18.066776616327584
0.7452124097883572,18.782978758407065
0.7652641406427755,20.099866568037083
0.7853158714971937,21.24733021502464
0.805367602351612,22.286978485785177
0.8254193332060301,23.17260479050712
0.8454710640604484,23.087892709185887
0.8655227949148666,22.91846854654343
0.8855745257692849,21.624684031819204
0.9056262566237031,21.90192357068868
0.9256779874781212,21.16261813370341
0.9457297183325396,19.945844601998484
0.9657814491869579,19.745616046148307
0.9858331800413761,18.52884251444338
1.0058849108957943,17.59700961990986
1.0259366417502125,16.480350366130022
1.0459883726046306,16.149203139147033
1.0660401034590488,15.163462556500004
1.086091834313467,13.900482434983498
1.1061435651678853,13.191981391205946
1.1261952960223034,12.745317689694012
1.1462470268767218,12.83002977101524
1.16629875773114,12.87623636082682
1.1863504885855582,12.622100116863132
1.2064022194399764,14.81691313291316
1.2264539502943947,15.964376779900716
1.2465056811488127,17.39678106405968
1.266557412003231,17.35827557255003
1.2866091428576494,16.53425805424353
1.3066608737120675,13.68485168252946
1.3267126045664859,12.398768266107165
1.346764335420904,12.683708903278571
1.3668160662753224,12.198539710256988
1.3868677971297405,13.70795497743525
1.4069195279841589,13.769563763850691
1.4269712588385768,14.424157119514733
1.4470229896929951,14.300939546683855
1.4670747205474133,14.247031858570345
1.4871264514018316,12.753018787995941
1.5071781822562498,10.920157392136622
1.5272299131106681,9.403041026656428
1.5472816439650863,8.2632784779708
1.5673333748195046,7.100412634379382
1.5873851056739228,6.853977488717625
1.6074368365283411,6.699955522679027
1.627488567382759,7.154320322492892
1.6475402982371774,6.730759915886747
1.6675920290915955,7.362249976645
1.687643759946014,7.654891712118337
1.707695490800432,7.2313313055121915
1.7277472216548504,9.048790504767652
1.7477989525092685,8.571322410047996
1.767850683363687,8.116957610234131
1.787902414218105,7.154320322492892
1.8079541450725232,6.576737949848148
1.8280058759269413,7.031102749662013
1.8480576067813597,7.131217027587103
1.8681093376357778,7.154320322492892
1.8881610684901962,7.100412634379382
1.9082127993446145,7.100412634379382
1.9282645301990327,6.576737949848148
1.948316261053451,6.8231730955099055
1.9683679919078692,7.169722519096752
1.9884197227622873,7.0002983564542935
2.0084714536167056,6.9386895700388544
2.028523184471124,6.838575292113766
2.0485749153255424,7.100412634379382
2.0686266461799607,6.638346736263588
2.0886783770343786,7.038803847963943
2.1087301078887966,7.246733502116051
2.1287818387432154,7.27753789532377
2.1488335695976333,7.223630207210261
2.1688853004520516,7.308342288531491
2.1889370313064695,6.730759915886747
2.2089887621608884,7.262135698719911
2.2290404930153063,8.17086529834764
2.2490922238697246,9.426144321562218
2.2691439547241425,11.728772713839263
2.289195685578561,14.193124170456835
2.3092474164329793,18.12068430444109
2.329299147287397,21.763303801253944
2.3493508781418155,23.157202593903257
2.369402608996234,22.695136695787465
2.3894543398506523,21.24733021502464
2.40950607070507,17.835743667269686
2.4295578015594885,14.655190068572631
2.449609532413907,12.606697920259272
2.469661263268325,10.488895887228546
2.489712994122743,9.541660796091167
2.509764724977161,9.510856402883446
2.52981645583158,9.26442125722169
2.549868186685998,8.656034491369226
2.569919917540416,8.648333393067295
2.5899716483948345,9.218214667410109
2.610023379249253,9.14120368439081
2.630075110103671,9.549361894393096
2.6501268409580887,11.05877716157136
2.6701785718125075,13.245889079319456
2.6902303026669254,16.34173059669528
2.710282033521344,19.075620493880404
2.7303337643757617,20.061361076527433
2.7503854952301805,19.599295178411637
2.7704372260845984,17.7356293893446
2.7904889569390168,15.255875736123164
2.8105406877934347,12.87623636082682
2.830592418647853,11.567049649498735
2.8506441495022714,12.86083416422296
2.8706958803566893,17.18115031160564
2.8907476112111077,33.30725015584689
2.910799342065526,69.53321656812521
2.9308510729199444,142.60123725683627
2.9509028037743623,252.39579574745107
2.9709545346287807,380.2956363459031
2.991006265483199,488.03400158990263
3.011057996337617,535.4265605399794
3.0311097271920353,512.4849886985302
3.0511614580464532,438.6006515898145
3.071213188900872,371.3315579224567
3.09126491975529,341.5899162804034
3.1113166506097083,366.5953824667698
3.131368381464126,414.23437656250826
3.151420112318545,447.36450145741077
3.171471843172963,429.00508310560986
3.1915235740273813,367.1883670360184
3.2115753048817997,273.27347324398306
3.2316270357362176,188.6615062006791
3.251678766590636,123.11745855295356
3.271730497445054,79.41372568950129
3.2917822282994726,53.94619360501906
3.3118339591538906,45.33636570346142
3.331885690008309,43.78074384647157
3.351937420862727,48.63243577668742
3.3719891517171456,49.82610601348656
3.3920408825715636,49.84150821009042
3.4120926134259815,46.10647553365441
3.4321443442804,38.12813769285501
3.452196075134818,29.964973492809303
3.4722478059892365,22.286978485785177
3.4922995368436545,16.55736134914932
3.512351267698073,13.677150584227531
3.532402998552491,11.07417935817522
3.5524547294069095,9.603269582506606
3.5725064602613275,8.902469637030983
3.5925581911157454,8.201669691555361
3.612609921970164,7.423858763060439
3.632661652824582,6.8847818819253455
3.6527133836790004,7.33144558343728
3.6727651145334184,7.146619224190962
3.692816845387837,7.477766451173949
3.712868576242255,7.639489515514477
3.7329203070966734,7.724201596835706
3.7529720379510914,7.885924661176234
3.7730237688055097,7.785810383251145
3.793075499659928,8.070751020422552
3.813127230514346,7.6317884172125465
3.833178961368765,7.477766451173949
3.8532306922231827,6.630645637961658
3.873282423077601,7.500869746079738
3.893334153932019,8.609827901557646
3.913385884786438,9.718786057035555
3.9334376156408557,11.721071615537332
3.9534893464952736,13.638645092717882
3.973541077349692,14.79380983800737
3.9935928082041103,16.7575899049995
4.013644539058529,16.888508576132306
4.033696269912947,16.934715165943885
4.0537480007673645,16.988622854057397
4.073799731621784,17.77413488085425
4.093851462476201,18.775277660105136
4.11390319333062,19.021712805766892
4.133954924185037,20.569633564454808
4.154006655039455,20.800666513512702
4.174058385893874,20.469519286529717
4.194110116748292,17.58930852160793
4.2141618476027105,14.917027410838248
4.234213578457128,12.598996821957343
4.254265309311547,9.711084958733624
4.274317040165966,7.808913678156935
4.294368771020383,6.4612214753192
4.314420501874801,5.814329217957087
4.334472232729219,5.159735862293044
4.354523963583638,4.435832621911632
4.3745756944380565,4.843990831913917
4.394627425292474,4.505142506629001
4.414679156146892,4.874795225121637
4.434730887001312,4.797784242102338
4.454782617855729,5.182839157198834
4.474834348710147,5.660307251918488
4.494886079564566,5.53708967908761
4.514937810418983,5.745019333239718
4.5349895412734025,5.752720431541648
4.55504127212782,5.152034763991114
4.575093002982238,5.421573204558661
4.595144733836657,4.990311699650586
4.615196464691075,5.152034763991114
4.635248195545493,4.497441408327071
4.655299926399912,4.697669964177249
4.675351657254329,4.890197421725497
4.695403388108748,5.236746845312343
4.715455118963166,5.8451336111648065
4.735506849817584,5.814329217957087
4.755558580672003,6.4612214753192
4.77561031152642,6.499726966828849
4.795662042380839,6.761564309094466
4.815713773235258,6.006856675505334
4.835765504089675,5.544790777389539
4.855817234944094,5.822030316259017
4.875868965798511,5.629502858710769
4.89592069665293,5.028817191160235
4.915972427507349,4.782382045498478
4.936024158361766,5.367665516445151
4.9560758892161845,5.598698465503049
4.976127620070604,5.421573204558661
4.996179350925021,5.013414994556375
5.0162310817794395,5.190540255500763
5.036282812633857,4.59755568625216
5.056334543488275,4.890197421725497
5.076386274342695,4.281810655873033
5.096438005197112,3.9583645271919767
5.1164897360515305,4.027674411909346
5.136541466905949,3.842848052663028
5.156593197760367,3.9044568390784673
5.1766449286147855,3.9044568390784673
5.196696659469204,3.8197447577572383
5.216748390323621,3.765837069643729
5.236800121178041,3.8120436594553087
5.256851852032458,3.550206317189691
5.276903582886876,3.5194019239819716
5.296955313741295,4.096984296626715
5.317007044595712,3.765837069643729
5.3370587754501315,4.59755568625216
5.35711050630455,5.721916038333927
5.377162237158967,6.338003902488321
5.397213968013386,6.49202586852692
5.417265698867803,7.169722519096752
5.437317429722222,6.068465461920774
5.457369160576641,5.552491875691469
5.477420891431058,5.244447943614273
5.497472622285477,4.405028228703912
5.517524353139896,4.043076608513206
5.537576083994313,3.5425052188877615
5.557627814848732,3.503999727378112
5.577679545703149,3.1805535986970552
5.597731276557568,3.403885449453023
5.617783007411987,3.126645910583546
5.637834738266404,3.3499777613395136
5.657886469120823,3.319173368131794
5.677938199975241,3.550206317189691
5.697989930829659,3.68882608662443
5.718041661684078,3.2498634834144244
5.738093392538495,3.226760188508635
5.7581451233929135,3.226760188508635
5.778196854247333,3.496298629076182
5.79824858510175,3.596412907001271
5.818300315956169,3.3653799579433734
5.838352046810587,3.7196304798321496
5.858403777665004,3.68882608662443
5.878455508519424,3.9352612322861873
5.898507239373842,4.451234818515491
5.9185589702282595,4.289511754174963
5.938610701082678,4.2972128524768936
5.958662431937096,4.389626032100052
5.978714162791515,3.9352612322861873
5.998765893645933,3.9814678220977666
6.01881762450035,3.773538167945659
6.038869355354769,3.950663428890047
6.058921086209188,3.66572279171864
6.0789728170636055,3.8197447577572383
6.099024547918024,3.5348041205858314
6.119076278772441,3.311472269829864
6.139128009626861,3.550206317189691
6.159179740481279,3.9121579373803974
6.179231471335696,3.6503205951147804
6.199283202190115,3.7196304798321496
6.219334933044533,3.7196304798321496
6.2393866638989515,3.9121579373803974
6.25943839475337,4.458935916817421
6.279490125607787,5.236746845312343
6.299541856462206,6.661450031169378
6.319593587316625,8.086153217026412
6.339645318171042,10.704526639682584
6.359697049025461,13.245889079319456
6.379748779879879,14.909326312536317
6.399800510734297,15.101853770084565
6.419852241588716,14.801510936309299
6.439903972443134,12.86083416422296
6.459955703297552,10.627515656663284
6.48000743415197,8.386496050801679
6.500059165006388,6.838575292113766
6.520110895860807,5.182839157198834
6.540162626715225,4.2972128524768936
6.5602143575696426,3.835146954361098
6.580266088424061,3.765837069643729
6.60031781927848,3.6811249883225
6.620369550132898,4.012272215305487
6.640421280987316,3.396184351151093
6.6604730118417335,3.296070073226004
6.680524742696153,3.6041140053032006
6.700576473550571,3.403885449453023
6.7206282044049885,3.4731953341703923
6.740679935259407,3.4500920392646024
6.760731666113825,3.5348041205858314
6.780783396968244,3.511700825680042
6.800835127822662,3.588711808699341
6.8208868586770794,3.5194019239819716
6.840938589531498,3.4577931375665325
6.860990320385917,3.311472269829864
6.8810420512403345,3.503999727378112
6.901093782094753,3.373081056245303
6.921145512949171,4.066179903418996
6.941197243803589,4.266408459269174
6.961248974658008,3.942962330588117
6.981300705512425,4.312615049080753
7.001352436366844,4.65146337436567
7.021404167221262,5.036518289462165
7.0414558980756805,5.352263319841292
7.061507628930099,5.375366614747081
7.081559359784517,5.583296268899189
7.101611090638935,4.828588635310058
7.121662821493353,4.512843604930931
7.141714552347772,4.689968865875319
7.16176628320219,3.835146954361098
7.181818014056608,3.796641462851449
7.201869744911026,3.596412907001271
7.221921475765445,3.773538167945659
7.241973206619863,3.4115865477549527
7.262024937474281,3.842848052663028
7.282076668328699,3.511700825680042
7.302128399183117,3.4500920392646024
7.322180130037536,3.758135971341799
7.342231860891954,3.881353544172678
7.362283591746372,3.70422828322829
7.38233532260079,4.243305164363384
7.402387053455209,4.61295788285602
7.422438784309627,4.158593083042155
7.442490515164045,4.628360079459879
7.462542246018463,4.64376227606374
7.482593976872881,4.820887537008128
7.5026457077273,4.659164472667599
7.522697438581718,4.689968865875319
7.542749169436136,4.528245801534791
7.562800900290554,4.104685394928645
7.582852631144973,4.320316147382683
7.602904361999391,3.8043425611533785
7.622956092853809,3.5656085137935514
7.643007823708227,3.68882608662443
7.663059554562645,3.573309612095481
7.6831112854170645,3.496298629076182
7.703163016271482,3.6426194968128502
7.7232147471259,3.588711808699341
7.743266477980318,4.135489788136365
7.763318208834737,4.104685394928645
7.783369939689155,4.135489788136365
7.803421670543573,4.104685394928645
7.823473401397991,3.942962330588117
7.84352513225241,4.0584788051170655
7.863576863106828,4.2972128524768936
7.883628593961246,4.081582100022856
7.903680324815664,4.674566669271459
7.923732055670082,4.905599618329356
7.943783786524501,5.691111645126208
7.963835517378919,5.837432512862876
7.983887248233337,6.545933556640429
8.003938979087756,7.670293908722196
8.023990709942174,8.178566396649572
8.044042440796591,8.055348823818692
8.064094171651009,7.801212579855005
8.084145902505428,7.200526912304472
8.104197633359847,6.800069800604116
8.124249364214265,5.760421529843577
8.144301095068682,5.075023780971815
8.164352825923102,5.013414994556375
8.184404556777519,4.458935916817421
8.204456287631938,4.2972128524768936
8.224508018486356,3.796641462851449
8.244559749340775,4.035375510211276
8.264611480195192,4.5821534896483005
8.28466321104961,4.243305164363384
8.30471494190403,4.5821534896483005
8.324766672758447,4.204799672853734
8.344818403612866,4.158593083042155
8.364870134467283,4.127788689834435
8.3849218653217,4.443533720213562
8.40497359617612,4.050777706815136
8.425025327030538,4.274109557571103
8.445077057884957,4.304913950778823
8.465128788739376,4.381924933798122
8.485180519593792,3.8890546424746075
8.505232250448211,4.112386493230575
8.52528398130263,4.451234818515491
8.545335712157048,4.60525678455409
8.565387443011467,4.998012797952516
8.585439173865883,4.851691930215847
8.605490904720302,4.766979848894618
8.625542635574721,5.198241353802693
8.645594366429139,5.306056730029712
8.665646097283558,5.182839157198834
8.685697828137974,5.344562221539362
8.705749558992393,4.713072160781109
8.725801289846812,4.659164472667599
8.74585302070123,4.7515776522907585
8.765904751555649,4.843990831913917
8.785956482410068,4.512843604930931
8.806008213264484,5.198241353802693
8.826059944118903,4.743876553988828
8.84611167497332,5.005713896254446
8.86616340582774,5.229045747010413
8.886215136682159,5.152034763991114
8.906266867536575,5.3291600249355024
8.926318598390994,4.9826106013486555
8.946370329245411,4.728474357384968
8.96642206009983,4.682267767573389
8.98647379095425,4.867094126819707
9.006525521808667,4.212500771155664
9.026577252663085,4.1200875915325055
9.046628983517502,4.389626032100052
9.066680714371921,4.258707360967244
9.08673244522634,3.9121579373803974
9.106784176080758,3.8890546424746075
9.126835906935176,4.335718343986543
9.146887637789593,4.443533720213562
9.166939368644012,4.535946899836721
9.186991099498432,4.343419442288472
9.207042830352849,4.797784242102338
9.227094561207267,4.905599618329356
9.247146292061686,5.336861123237432
9.267198022916103,5.021116092858305
9.287249753770523,4.9287029132351465
9.30730148462494,5.352263319841292
9.32735321547936,5.421573204558661
9.347404946333777,4.797784242102338
9.367456677188194,4.65146337436567
9.387508408042613,5.275252336821993
9.407560138897031,4.874795225121637
9.42761186975145,4.867094126819707
9.447663600605868,4.790083143800408
9.467715331460285,4.543647998138651
9.487767062314704,4.60525678455409
9.507818793169124,4.766979848894618
9.527870524023541,4.60525678455409
9.547922254877959,4.55134909644058
9.567973985732376,4.967208404744796
9.588025716586795,4.304913950778823
9.608077447441215,4.435832621911632
9.628129178295632,4.697669964177249
9.648180909150051,4.57445239134637
9.668232640004467,4.705371062479179
9.688284370858886,5.067322682669885
9.708336101713305,4.743876553988828
9.728387832567723,4.836289733611987
9.748439563422142,4.867094126819707
9.768491294276558,4.959507306442866
9.788543025130977,4.4666370151193515
9.808594755985396,4.59755568625216
9.828646486839814,4.55134909644058
9.848698217694233,4.836289733611987
9.868749948548652,4.397327130401982
9.888801679403068,4.328017245684613
9.908853410257487,4.851691930215847
9.928905141111905,4.443533720213562
9.948956871966324,4.65146337436567
9.969008602820743,4.828588635310058
9.989060333675159,4.56675129304444
10.009112064529578,4.782382045498478
10.029163795383996,4.790083143800408
10.049215526238415,4.628360079459879
10.069267257092834,4.697669964177249
10.08931898794725,4.9826106013486555
10.109370718801669,4.628360079459879
10.129422449656087,5.2675512385200625
10.149474180510506,5.136632567387254
10.169525911364925,4.9287029132351465
10.189577642219342,5.4831819909741
10.20962937307376,4.936404011537077
10.22968110392818,5.583296268899189
10.249732834782597,5.583296268899189
10.269784565637016,5.383067713049011
10.289836296491433,6.0761665602227035
10.30988802734585,5.637203957012699
10.32993975820027,5.783524824749367
10.349991489054688,5.6141006621069085
10.370043219909107,5.737318234937788
10.390094950763524,5.929845692486036
10.410146681617944,6.0222588721091945
10.430198412472361,6.083867658524634
10.450250143326778,6.545933556640429
10.470301874181198,6.183981936449722
10.490353605035615,6.42271598380955
10.510405335890034,6.776966505698327
10.530457066744452,6.969493963246574
10.55050879759887,6.838575292113766
10.570560528453289,7.046504946265873
10.590612259307708,7.7473048917414955
10.610663990162125,7.847419169666584
10.630715721016543,7.739603793439565
10.65076745187096,8.2632784779708
10.67081918272538,8.571322410047996
10.690870913579799,8.940975128540632
10.710922644434216,9.495454206279586
10.730974375288636,10.473493690624686
10.751026106143051,10.373379412699597
10.77107783699747,11.651761730819963
10.79112956785189,12.991752835355769
10.811181298706307,13.515427519887004
10.831233029560726,16.233915220468262
10.851284760415142,18.875391938030223
10.871336491269561,23.588464098811333
10.89138822212398,30.20370754016913
10.911439952978398,42.3714428572184
10.931491683832817,59.74512062637229
10.951543414687237,91.11939510843477
10.971595145541652,136.9948376930313
10.991646876396072,199.82039764017554
11.011698607250489,284.4246635851776
11.031750338104908,384.9856052117784
