Energy (keV),Intensity (cps),slope,offset,liveTime
-0.016753362679535415,0.0,20.051730854418228,-16.753362679535414,36.846431732177734
0.003298368174882814,0.0
0.023350099029301043,0.0
0.043401829883719274,0.0
0.0634535607381375,0.0
0.08350529159255572,0.0
0.10355702244697396,0.0
0.12360875330139219,0.0
0.14366048415581043,0.0
0.16371221501022865,0.0
0.18376394586464687,0.0
0.2038156767190651,0.0
0.2238674075734833,0.0
0.24391913842790156,0.0
0.2639708692823198,0.0
0.28402260013673797,0.0
0.3040743309911562,0.0
0.32412606184557446,0.0
0.34417779269999266,0.0
0.3642295235544109,0.0
0.3842812544088291,0.0
0.40433298526324735,0.0
0.42438471611766554,0.0542793401145928
0.4444364469720838,0.0814190101718892
0.4644881778265021,0.2442570305156676
0.4845399086809203,0.5970727412605208
0.5045916395353385,1.0584471322345597
0.5246433703897568,3.311039746990161
0.544695101244175,5.156537310886316
0.5647468320985932,8.22332002736081
0.5847985629530115,14.166907769908722
0.6048502938074297,19.567702111310705
0.624902024661848,29.03944696130715
0.6449537555162661,40.736644756001894
0.6650054863706844,51.48395409869127
0.6850572172251026,64.32101803579246
0.7051089480795208,75.77395879997155
0.725160678933939,82.61315565441025
0.7452124097883572,96.48152705368871
0.7652641406427755,106.06183058391433
0.7853158714971937,114.96364236270755
0.805367602351612,119.76736396284902
0.8254193332060301,130.35183528519462
0.8454710640604484,133.22864031126804
0.8655227949148666,143.02606120195202
0.8855745257692849,138.87369168318568
0.9056262566237031,146.1742629285984
0.9256779874781212,146.4456596291714
0.9457297183325396,146.4185199591141
0.9657814491869579,146.2014025986557
0.9858331800413761,144.7901397556763
1.0058849108957943,148.77967125409887
1.0259366417502125,140.8006082572537
1.0459883726046306,137.84238422100842
1.0660401034590488,133.3914783316118
1.086091834313467,126.11804675625638
1.1061435651678853,123.86545414150078
1.1261952960223034,116.34776553562966
1.1462470268767218,113.74235721012921
1.16629875773114,108.15158517832616
1.1863504885855582,98.84267834867349
1.2064022194399764,96.69864441414707
1.2264539502943947,90.61935832131267
1.2465056811488127,84.56721189853559
1.266557412003231,80.90335644080056
1.2866091428576494,75.3940034191694
1.3066608737120675,69.91179006759553
1.3267126045664859,68.98904128564745
1.346764335420904,65.08092879739677
1.3668160662753224,60.3043468673126
1.3868677971297405,59.19162039496345
1.4069195279841589,56.830469099978664
1.4269712588385768,57.75321788192674
1.4470229896929951,56.5047930592911
1.4670747205474133,58.45884930341645
1.4871264514018316,57.15614514066622
1.5071781822562498,52.352423540524754
1.5272299131106681,49.25850115399297
1.5472816439650863,41.87651089840835
1.5673333748195046,39.786756303996526
1.5873851056739228,37.96839841015766
1.6074368365283411,34.521660312881025
1.627488567382759,34.98303470385506
1.6475402982371774,35.498688434943695
1.6675920290915955,33.897447901563204
1.687643759946014,35.47154876488639
1.707695490800432,36.12290084626151
1.7277472216548504,36.01434216603232
1.7477989525092685,35.28157107448532
1.767850683363687,30.939223865317896
1.787902414218105,31.861972647265976
1.8079541450725232,28.87660894096337
1.8280058759269413,28.985167621192556
1.8480576067813597,32.18764868795353
1.8681093376357778,30.342151124057377
1.8881610684901962,30.097894093541708
1.9082127993446145,31.42773792634923
1.9282645301990327,30.206452773770895
1.948316261053451,32.54046439869838
1.9683679919078692,32.94755944955783
1.9884197227622873,37.6698620395274
2.0084714536167056,38.429772801131705
2.028523184471124,37.941258740100366
2.0485749153255424,36.34001820671988
2.0686266461799607,36.50285622706366
2.0886783770343786,32.377626378354606
2.1087301078887966,33.27323549024538
2.1287818387432154,31.780553637094084
2.1488335695976333,31.6719949568649
2.1688853004520516,33.897447901563204
2.1889370313064695,49.69273587490971
2.2089887621608884,85.9513350714577
2.2290404930153063,165.0091939483621
2.2490922238697246,283.8809487993203
2.2691439547241425,416.53965603938514
2.289195685578561,495.0818611852009
2.3092474164329793,504.4450473549682
2.329299147287397,449.54149482905757
2.3493508781418155,397.4876076591631
2.369402608996234,374.0932120697736
2.3894543398506523,356.91380092350494
2.40950607070507,332.7594945725112
2.4295578015594885,283.14817770777336
2.449609532413907,221.8125233782835
2.469661263268325,177.1949058040882
2.489712994122743,131.27458406714268
2.509764724977161,103.07646687761172
2.52981645583158,67.44208009238156
2.549868186685998,49.47561851445134
2.569919917540416,38.04981742032955
2.5899716483948345,31.12920155571897
2.610023379249253,27.35678741775477
2.630075110103671,26.515457645978582
2.6501268409580887,21.33178066503497
2.6701785718125075,20.51759056331608
2.6902303026669254,19.51342277119611
2.710282033521344,19.29630541073774
2.7303337643757617,18.807791349706406
2.7503854952301805,18.807791349706406
2.7704372260845984,18.047880588102107
2.7904889569390168,19.404864090966925
2.8105406877934347,19.024908710164777
2.830592418647853,19.05204838022207
2.8506441495022714,18.726372339534517
2.8706958803566893,18.40069629884696
2.8907476112111077,19.432003761024223
2.910799342065526,19.16060706045126
2.9308510729199444,19.784819471769076
2.9509028037743623,19.83909881188367
2.9709545346287807,18.91635002993559
2.991006265483199,19.486283101138817
3.011057996337617,17.315109496555102
3.0311097271920353,16.44664005472162
3.0511614580464532,15.496751602716245
3.071213188900872,15.333913582372466
3.09126491975529,16.44664005472162
3.1113166506097083,15.415332592544356
3.131368381464126,15.361053252429762
3.151420112318545,14.791120181226539
3.171471843172963,15.876706983518394
3.1915235740273813,15.38819292248706
3.2115753048817997,13.244158987960644
3.2316270357362176,16.41950038466432
3.251678766590636,14.519723480653575
3.271730497445054,14.926818531513021
3.2917822282994726,15.68672929311732
3.3118339591538906,15.30677391231517
3.331885690008309,15.252494572200577
3.351937420862727,14.438304470481684
3.3719891517171456,15.60531028294543
3.3920408825715636,14.926818531513021
3.4120926134259815,13.5698350286482
3.4321443442804,14.275466450137907
3.452196075134818,13.054181297559568
3.4722478059892365,13.786952389106572
3.4922995368436545,13.515555688533608
3.512351267698073,14.004069749564943
3.532402998552491,13.5698350286482
3.5524547294069095,13.705533378934682
3.5725064602613275,13.922650739393054
3.5925581911157454,11.83289614498123
3.612609921970164,12.97276228738768
3.632661652824582,12.674225916757418
3.6527133836790004,13.217019317903347
3.6727651145334184,13.542695358590905
3.692816845387837,13.406997008304423
3.712868576242255,13.081320967616865
3.7329203070966734,12.8099242670439
3.7529720379510914,12.8099242670439
3.7730237688055097,11.914315155153119
3.793075499659928,11.371521754007192
3.813127230514346,11.887175485095824
3.833178961368765,11.208683733663413
3.8532306922231827,11.670058124637452
3.873282423077601,11.262963073778007
3.893334153932019,10.095957261314261
3.913385884786438,12.158572185668788
3.9334376156408557,10.041677921199668
3.9534893464952736,11.208683733663413
3.973541077349692,11.670058124637452
3.9935928082041103,11.262963073778007
4.013644539058529,10.883007692975857
4.033696269912947,10.25879528165804
4.0537480007673645,10.801588682803967
4.073799731621784,11.01870604326234
4.093851462476201,10.747309342689375
4.11390319333062,10.693030002574782
4.133954924185037,9.0375101290797
4.154006655039455,10.041677921199668
4.174058385893874,8.847532438678627
4.194110116748292,9.960258911027779
4.2141618476027105,8.983230788965109
4.234213578457128,8.738973758449442
4.254265309311547,8.386158047704587
4.274317040165966,9.281767159595368
4.294368771020383,8.901811778793219
4.314420501874801,8.847532438678627
4.334472232729219,9.146068809308886
4.354523963583638,7.707666296272178
4.3745756944380565,8.277599367475402
4.394627425292474,9.363186169767259
4.414679156146892,7.517688605871103
4.434730887001312,9.010370459022404
4.454782617855729,9.743141550569408
4.474834348710147,9.58030353022563
4.494886079564566,9.960258911027779
4.514937810418983,10.421633302001817
4.5349895412734025,9.064649799136998
4.55504127212782,9.987398581085076
4.575093002982238,9.064649799136998
4.595144733836657,8.548996068048366
4.615196464691075,8.548996068048366
4.635248195545493,8.657554748277551
4.655299926399912,7.409129925641917
4.675351657254329,7.002034874782471
4.695403388108748,8.033342336959734
4.715455118963166,7.897643986673253
4.735506849817584,7.979062996845141
4.755558580672003,7.517688605871103
4.77561031152642,7.544828275928399
4.795662042380839,7.4634092657565105
4.815713773235258,7.571967945985696
4.835765504089675,7.273431575355436
4.855817234944094,7.599107616042992
4.875868965798511,7.9519233267878455
4.89592069665293,7.870504316615956
4.915972427507349,8.413297717761884
4.936024158361766,7.897643986673253
4.9560758892161845,8.06048200701703
4.976127620070604,8.033342336959734
4.996179350925021,7.273431575355436
5.0162310817794395,6.893476194553286
5.036282812633857,7.1648728951262495
5.056334543488275,6.7849175143241
5.076386274342695,7.571967945985696
5.096438005197112,6.812057184381397
5.1164897360515305,7.192012565183546
5.136541466905949,6.40496213352195
5.156593197760367,6.7849175143241
5.1766449286147855,7.192012565183546
5.196696659469204,6.649219164037618
5.216748390323621,6.757777844266804
5.236800121178041,6.947755534667879
5.256851852032458,6.025006752719801
5.276903582886876,7.409129925641917
5.296955313741295,9.173208479366183
5.317007044595712,10.231655611600743
5.3370587754501315,12.131432515611491
5.35711050630455,14.085488759736831
5.377162237158967,15.741008633231912
5.397213968013386,16.5823384050081
5.417265698867803,17.72220454741455
5.437317429722222,14.763980511169242
5.457369160576641,15.333913582372466
5.477420891431058,12.538527566470936
5.497472622285477,9.064649799136998
5.517524353139896,8.44043738781918
5.537576083994313,7.273431575355436
5.557627814848732,6.730638174209507
5.577679545703149,7.192012565183546
5.597731276557568,5.997867082662505
5.617783007411987,5.645051371917651
5.637834738266404,6.567800153865729
5.657886469120823,6.622079493980322
5.677938199975241,6.649219164037618
5.697989930829659,6.866336524495989
5.718041661684078,7.300571245412732
5.738093392538495,7.327710915470028
5.7581451233929135,7.273431575355436
5.778196854247333,6.866336524495989
5.79824858510175,6.920615864610582
5.818300315956169,6.947755534667879
5.838352046810587,7.409129925641917
5.858403777665004,7.816224976501363
5.878455508519424,7.9519233267878455
5.898507239373842,8.494716727933774
5.9185589702282595,9.444605179939147
5.938610701082678,8.60327540816296
5.958662431937096,9.118929139251591
5.978714162791515,7.734805966329474
5.998765893645933,8.521856397991069
6.01881762450035,6.8391968544386925
6.038869355354769,8.033342336959734
6.058921086209188,7.381990255584621
6.0789728170636055,6.866336524495989
6.099024547918024,7.110593555011657
6.119076278772441,6.432101803579247
6.139128009626861,6.40496213352195
6.159179740481279,7.490548935813806
6.179231471335696,7.110593555011657
6.199283202190115,6.160705103006283
6.219334933044533,7.219152235240842
6.2393866638989515,7.626247286100289
6.25943839475337,8.06048200701703
6.279490125607787,10.611610992402893
6.299541856462206,13.244158987960644
6.319593587316625,17.776483887529142
6.339645318171042,23.88290965042083
6.359697049025461,29.907916403140632
6.379748779879879,34.54879998293832
6.399800510734297,34.6844983332248
6.419852241588716,34.22312394225076
6.439903972443134,30.69496683480223
6.459955703297552,24.941356782655394
6.48000743415197,18.8349310197637
6.500059165006388,14.004069749564943
6.520110895860807,10.421633302001817
6.540162626715225,9.444605179939147
6.5602143575696426,6.893476194553286
6.580266088424061,7.4634092657565105
6.60031781927848,7.002034874782471
6.620369550132898,7.4634092657565105
6.640421280987316,6.812057184381397
6.6604730118417335,6.649219164037618
6.680524742696153,6.893476194553286
6.700576473550571,6.622079493980322
6.7206282044049885,6.242124113178172
6.740679935259407,7.029174544839767
6.760731666113825,5.617911701860355
6.780783396968244,6.866336524495989
6.800835127822662,5.835029062318726
6.8208868586770794,6.296403453292765
6.840938589531498,6.540660483808432
6.860990320385917,7.734805966329474
6.8810420512403345,7.192012565183546
6.901093782094753,7.192012565183546
6.921145512949171,7.354850585527324
6.941197243803589,6.812057184381397
6.961248974658008,7.110593555011657
6.981300705512425,8.82039276862133
7.001352436366844,9.933119240970482
7.021404167221262,11.100125053434228
7.0414558980756805,11.45294076417908
7.061507628930099,11.371521754007192
7.081559359784517,11.045845713319634
7.101611090638935,11.561499444408266
7.121662821493353,9.227487819480777
7.141714552347772,8.413297717761884
7.16176628320219,8.277599367475402
7.181818014056608,7.9519233267878455
7.201869744911026,6.1878447730635795
7.221921475765445,7.816224976501363
7.241973206619863,5.753610052146837
7.262024937474281,6.432101803579247
7.282076668328699,6.3506827934073575
7.302128399183117,7.056314214897064
7.322180130037536,5.997867082662505
7.342231860891954,7.246291905298139
7.362283591746372,7.192012565183546
7.38233532260079,7.544828275928399
7.402387053455209,9.254627489538073
7.422438784309627,9.281767159595368
7.442490515164045,8.630415078220256
7.462542246018463,9.118929139251591
7.482593976872881,8.874672108735924
7.5026457077273,8.847532438678627
7.522697438581718,8.766113428506737
7.542749169436136,7.84336464655866
7.562800900290554,7.626247286100289
7.582852631144973,6.893476194553286
7.602904361999391,7.219152235240842
7.622956092853809,6.866336524495989
7.643007823708227,6.214984443120875
7.663059554562645,6.757777844266804
7.6831112854170645,6.6763588340949145
7.703163016271482,5.42793401145928
7.7232147471259,7.056314214897064
7.743266477980318,6.6763588340949145
7.763318208834737,6.8391968544386925
7.783369939689155,6.48638114369384
7.803421670543573,6.730638174209507
7.823473401397991,6.567800153865729
7.84352513225241,6.567800153865729
7.863576863106828,7.219152235240842
7.883628593961246,7.653386956157585
7.903680324815664,7.273431575355436
7.923732055670082,8.14190101718892
7.943783786524501,9.688862210454815
7.963835517378919,10.720169672632078
7.983887248233337,12.8099242670439
8.003938979087756,11.941454825210416
8.023990709942174,14.24832678008061
8.044042440796591,14.329745790252499
8.064094171651009,14.058349089679535
8.084145902505428,13.325577998132532
8.104197633359847,11.914315155153119
8.124249364214265,10.394493631944522
8.144301095068682,8.847532438678627
8.164352825923102,8.006202666902437
8.184404556777519,8.169040687246216
8.204456287631938,7.734805966329474
8.224508018486356,8.114761347131624
8.244559749340775,7.9519233267878455
8.264611480195192,8.576135738105663
8.28466321104961,8.087621677074328
8.30471494190403,8.60327540816296
8.324766672758447,9.227487819480777
8.344818403612866,10.693030002574782
8.364870134467283,10.584471322345596
8.3849218653217,11.290102743835302
8.40497359617612,10.801588682803967
8.425025327030538,11.045845713319634
8.445077057884957,9.743141550569408
8.465128788739376,9.905979570913185
8.485180519593792,8.087621677074328
8.505232250448211,8.277599367475402
8.52528398130263,7.246291905298139
8.545335712157048,8.60327540816296
8.565387443011467,8.196180357303513
8.585439173865883,6.594939823923025
8.605490904720302,6.6763588340949145
8.625542635574721,7.381990255584621
8.645594366429139,7.300571245412732
8.665646097283558,7.300571245412732
8.685697828137974,8.196180357303513
8.705749558992393,6.622079493980322
8.725801289846812,7.219152235240842
8.74585302070123,7.246291905298139
8.765904751555649,7.599107616042992
8.785956482410068,7.979062996845141
8.806008213264484,7.707666296272178
8.826059944118903,8.196180357303513
8.84611167497332,9.173208479366183
8.86616340582774,8.250459697418107
8.886215136682159,8.901811778793219
8.906266867536575,8.793253098564033
8.926318598390994,8.169040687246216
8.946370329245411,8.06048200701703
8.96642206009983,8.114761347131624
8.98647379095425,7.4634092657565105
9.006525521808667,7.246291905298139
9.026577252663085,6.6763588340949145
9.046628983517502,6.703498504152211
9.066680714371921,6.703498504152211
9.08673244522634,6.893476194553286
9.106784176080758,7.137733225068954
9.126835906935176,7.680526626214881
9.146887637789593,6.974895204725175
9.166939368644012,7.490548935813806
9.186991099498432,7.924783656730549
9.207042830352849,8.413297717761884
9.227094561207267,7.083453884954361
9.247146292061686,8.14190101718892
9.267198022916103,7.354850585527324
9.287249753770523,8.548996068048366
9.30730148462494,7.9519233267878455
9.32735321547936,7.571967945985696
9.347404946333777,7.490548935813806
9.367456677188194,7.273431575355436
9.387508408042613,7.354850585527324
9.407560138897031,6.5135208137511365
9.42761186975145,7.029174544839767
9.447663600605868,7.381990255584621
9.467715331460285,7.354850585527324
9.487767062314704,7.029174544839767
9.507818793169124,7.680526626214881
9.527870524023541,7.571967945985696
9.547922254877959,8.711834088392145
9.567973985732376,8.033342336959734
9.588025716586795,9.471744849996444
9.608077447441215,11.072985383376931
9.628129178295632,10.313074621772632
9.648180909150051,11.61577878452286
9.668232640004467,12.294270535955269
9.688284370858886,11.751477134809342
9.708336101713305,12.565667236528233
9.728387832567723,10.421633302001817
9.748439563422142,9.471744849996444
9.768491294276558,10.150236601428853
9.788543025130977,10.014538251142373
9.808594755985396,8.359018377647292
9.828646486839814,8.331878707589995
9.848698217694233,8.033342336959734
9.868749948548652,8.467577057876477
9.888801679403068,7.056314214897064
9.908853410257487,8.006202666902437
9.928905141111905,8.576135738105663
9.948956871966324,7.599107616042992
9.969008602820743,7.110593555011657
9.989060333675159,7.192012565183546
10.009112064529578,7.110593555011657
10.029163795383996,7.816224976501363
10.049215526238415,7.9519233267878455
10.069267257092834,6.703498504152211
10.08931898794725,7.734805966329474
10.109370718801669,6.432101803579247
10.129422449656087,7.599107616042992
10.149474180510506,6.432101803579247
10.169525911364925,6.296403453292765
10.189577642219342,6.40496213352195
10.20962937307376,7.436269595699214
10.22968110392818,6.296403453292765
10.249732834782597,7.083453884954361
10.269784565637016,6.920615864610582
10.289836296491433,6.432101803579247
10.30988802734585,6.974895204725175
10.32993975820027,7.436269595699214
10.349991489054688,6.48638114369384
10.370043219909107,7.734805966329474
10.390094950763524,7.680526626214881
10.410146681617944,7.9519233267878455
10.430198412472361,7.626247286100289
10.450250143326778,8.006202666902437
10.470301874181198,7.816224976501363
10.490353605035615,8.901811778793219
10.510405335890034,8.983230788965109
10.530457066744452,9.688862210454815
10.55050879759887,8.711834088392145
10.570560528453289,9.0375101290797
10.590612259307708,8.657554748277551
10.610663990162125,9.146068809308886
10.630715721016543,8.576135738105663
10.65076745187096,8.684694418334848
10.67081918272538,7.327710915470028
10.690870913579799,7.517688605871103
10.710922644434216,7.924783656730549
10.730974375288636,7.599107616042992
10.751026106143051,6.594939823923025
10.77107783699747,7.219152235240842
10.79112956785189,7.354850585527324
10.811181298706307,8.359018377647292
10.831233029560726,7.381990255584621
10.851284760415142,8.169040687246216
10.871336491269561,7.409129925641917
10.89138822212398,7.599107616042992
10.911439952978398,7.84336464655866
10.931491683832817,7.84336464655866
10.951543414687237,8.06048200701703
10.971595145541652,7.083453884954361
10.991646876396072,7.327710915470028
11.011698607250489,7.273431575355436
11.031750338104908,7.626247286100289
