Energy (keV),Intensity (cps),slope,offset,liveTime
-0.016753362679535415,0.0,20.051730854418228,-16.753362679535414,108.10306549072266
0.003298368174882814,0.0
0.023350099029301043,0.0
0.043401829883719274,0.0
0.0634535607381375,0.0
0.08350529159255572,0.0
0.10355702244697396,0.0
0.12360875330139219,0.0
0.14366048415581043,0.0
0.16371221501022865,0.0
0.18376394586464687,0.0
0.2038156767190651,0.0
0.2238674075734833,0.0
0.24391913842790156,0.0
0.2639708692823198,0.0
0.28402260013673797,0.0
0.3040743309911562,0.0
0.32412606184557446,0.0
0.34417779269999266,0.0
0.3642295235544109,0.0
0.3842812544088291,0.009250431479076044
0.40433298526324735,0.0
0.42438471611766554,0.04625215739538022
0.4444364469720838,0.10175474626983648
0.4644881778265021,0.5642763202236387
0.4845399086809203,2.599371245620368
0.5045916395353385,12.182818257943149
0.5246433703897568,36.47445132199684
0.544695101244175,71.14506850557385
0.5647468320985932,93.69762045156125
0.5847985629530115,86.04751361836536
0.6048502938074297,55.43783585410273
0.624902024661848,33.80107662454386
0.6449537555162661,32.256254567538164
0.6650054863706844,48.296502752256025
0.6850572172251026,77.0375933577453
0.7051089480795208,104.44662183024761
0.725160678933939,111.78221399315491
0.7452124097883572,97.19428355065199
0.7652641406427755,81.07078148262245
0.7853158714971937,71.65384223692304
0.805367602351612,71.99610820164885
0.8254193332060301,70.5900426168293
0.8454710640604484,72.86564876068199
0.8655227949148666,74.98399756939041
0.8855745257692849,77.9626365056529
0.9056262566237031,81.70906125467869
0.9256779874781212,85.82550326286753
0.9457297183325396,87.22231841620801
0.9657814491869579,83.76265704303357
0.9858331800413761,78.67491972954176
1.0058849108957943,75.03950015826487
1.0259366417502125,72.86564876068199
1.0459883726046306,76.36231185977275
1.0660401034590488,76.10329977835862
1.086091834313467,77.23185241880589
1.1061435651678853,74.74348635093443
1.1261952960223034,74.86374196016243
1.1462470268767218,73.54093025865454
1.16629875773114,74.32721693437601
1.1863504885855582,76.73232911893578
1.2064022194399764,77.49086450022001
1.2264539502943947,76.46406660604258
1.2465056811488127,72.84714789772384
1.266557412003231,72.59738624778879
1.2866091428576494,69.07297185426081
1.3066608737120675,68.52719639699534
1.3267126045664859,67.62065411204588
1.346764335420904,69.63724817448445
1.3668160662753224,70.21077492618717
1.3868677971297405,72.08861251643961
1.4069195279841589,78.24014945002517
1.4269712588385768,94.12314029959875
1.4470229896929951,115.04761630526876
1.4670747205474133,131.4486313176706
1.4871264514018316,133.84449307075127
1.5071781822562498,117.70249013976358
1.5272299131106681,98.33208662257834
1.5472816439650863,80.95052587339445
1.5673333748195046,74.29946563993879
1.5873851056739228,69.70200119483799
1.6074368365283411,67.75016015275294
1.627488567382759,67.20438469548746
1.6475402982371774,68.81395977284669
1.6675920290915955,74.16070916775264
1.687643759946014,82.98562079879119
1.707695490800432,96.75026283965634
1.7277472216548504,106.65747495374679
1.7477989525092685,109.17359231605546
1.767850683363687,107.1107460962215
1.787902414218105,98.8501107854066
1.8079541450725232,99.7011504814816
1.8280058759269413,98.57259784103432
1.8480576067813597,105.25140936892723
1.8681093376357778,112.83676318176958
1.8881610684901962,122.69772313846464
1.9082127993446145,141.1245826447841
1.9282645301990327,170.99422589072066
1.948316261053451,212.75067358726992
1.9683679919078692,274.67306190820494
1.9884197227622873,337.15972654936365
2.0084714536167056,373.07915198261594
2.028523184471124,371.76559071258714
2.0485749153255424,346.61366752097933
2.0686266461799607,309.12166873628416
2.0886783770343786,279.1317698811196
2.1087301078887966,267.22646456754876
2.1287818387432154,273.44275452148787
2.1488335695976333,365.78056154562495
2.1688853004520516,776.2684584296244
2.1889370313064695,2247.762345100688
2.2089887621608884,6636.287294383591
2.2290404930153063,16964.65305285341
2.2490922238697246,35375.648069186274
2.2691439547241425,59233.130632632485
2.289195685578561,78939.59307502108
2.3092474164329793,83485.73612627595
2.329299147287397,70115.4492297953
2.3493508781418155,46927.74415759158
2.369402608996234,25436.827230731826
2.3894543398506523,12143.318915527494
2.40950607070507,6683.344239317651
2.4295578015594885,5710.994384826052
2.449609532413907,6045.3882323631715
2.469661263268325,5884.920997495639
2.489712994122743,4760.688308549091
2.509764724977161,3128.144409827313
2.52981645583158,1713.5961793414417
2.549868186685998,802.872699363447
2.569919917540416,372.32061660133166
2.5899716483948345,245.75621310461327
2.610023379249253,287.9844328065954
2.630075110103671,424.83531610804636
2.6501268409580887,625.5696792039965
2.6701785718125075,821.4475657734317
2.6902303026669254,923.6093310283476
2.710282033521344,882.8056777741432
2.7303337643757617,732.3196584725341
2.7503854952301805,564.0543098681409
2.7704372260845984,472.29928002718555
2.7904889569390168,482.03998437465265
2.8105406877934347,543.9438718326295
2.830592418647853,598.4751654017828
2.8506441495022714,609.0206572879295
2.8706958803566893,589.7982606744094
2.8907476112111077,574.8033112468272
2.910799342065526,602.2215901508087
2.9308510729199444,653.1914676005176
2.9509028037743623,675.0317363226161
2.9709545346287807,629.6028673288737
2.991006265483199,512.5756586870826
3.011057996337617,367.54739395812845
3.0311097271920353,240.86273485218203
3.0511614580464532,154.47295526909085
3.071213188900872,106.33370985197912
3.09126491975529,88.3508710566553
3.1113166506097083,84.6044463076295
3.131368381464126,91.92153760757864
3.151420112318545,103.46607609346555
3.171471843172963,107.70277371088238
3.1915235740273813,106.58347150191418
3.2115753048817997,97.39779304319167
3.2316270357362176,81.06153105114338
3.251678766590636,68.71220502657685
3.271730497445054,58.02795666824402
3.2917822282994726,54.34628493957176
3.3118339591538906,55.55809146333072
3.331885690008309,55.72459922995409
3.351937420862727,56.029863468763594
3.3719891517171456,55.521089737414414
3.3920408825715636,54.82730737648371
3.4120926134259815,51.64515894768155
3.4321443442804,50.2760950887783
3.452196075134818,47.658222980199774
3.4722478059892365,47.90798463013483
3.4922995368436545,48.81452691508428
3.512351267698073,47.297456152515814
3.532402998552491,49.221545900163626
3.5524547294069095,48.82377734656336
3.5725064602613275,50.76636795716933
3.5925581911157454,52.116930953114434
3.612609921970164,52.653455978900844
3.632661652824582,52.81996374552421
3.6527133836790004,55.70609836699594
3.6727651145334184,57.03816049998289
3.692816845387837,56.96415704815028
3.712868576242255,58.38872349592799
3.7329203070966734,59.70228476595678
3.7529720379510914,60.46082014724102
3.7730237688055097,62.42191162080514
3.793075499659928,63.52271296681519
3.813127230514346,64.4847578406391
3.833178961368765,66.85286829928256
3.8532306922231827,66.29784241053801
3.873282423077601,66.84361786780349
3.893334153932019,69.5447438596937
3.913385884786438,70.96005987599233
3.9334376156408557,72.2828715775002
3.9534893464952736,75.11350361009748
3.973541077349692,75.23375921932546
3.9935928082041103,79.75722021259365
4.013644539058529,80.91352414747816
4.033696269912947,83.04112338766565
4.0537480007673645,85.17797305933222
4.073799731621784,85.59424247589064
4.093851462476201,87.10206280698003
4.11390319333062,89.10940643793953
4.133954924185037,91.00574489115012
4.154006655039455,92.84658075548624
4.174058385893874,94.51165842171994
4.194110116748292,98.07307454116422
4.2141618476027105,100.77420053305443
4.234213578457128,103.9470985303775
4.254265309311547,107.50851464982178
4.274317040165966,112.22623470415056
4.294368771020383,116.88845216960489
4.314420501874801,120.36661440573748
4.334472232729219,120.52387174088177
4.354523963583638,118.21126387111276
4.3745756944380565,119.3583173745182
4.394627425292474,116.62018965671169
4.414679156146892,121.55066963505921
4.434730887001312,129.17302517381788
4.454782617855729,151.4758154698702
4.474834348710147,208.5879794216857
4.494886079564566,335.37439327390194
4.514937810418983,573.563753428631
4.5349895412734025,951.6751401358644
4.55504127212782,1460.7448852923771
4.575093002982238,1995.24406658487
4.595144733836657,2417.84077827498
4.615196464691075,2547.39307113944
4.635248195545493,2363.929263614925
4.655299926399912,1933.0441653195628
4.675351657254329,1412.0228626920837
4.695403388108748,980.9157540412236
4.715455118963166,702.5425195413883
4.735506849817584,555.7104206740142
4.755558580672003,503.49173497463
4.77561031152642,462.9470938018397
4.795662042380839,415.07611089762116
4.815713773235258,340.61938792253807
4.835765504089675,266.1441640844969
4.855817234944094,205.1190676170322
4.875868965798511,162.62258540215686
4.89592069665293,142.57690038699906
4.915972427507349,138.41420622141484
4.936024158361766,140.07928388764853
4.9560758892161845,148.14566013740284
4.976127620070604,152.27135257707076
4.996179350925021,157.02607435731585
5.0162310817794395,153.69591902484848
5.036282812633857,150.64327663675337
5.056334543488275,141.596354650217
5.076386274342695,139.10798858234554
5.096438005197112,138.6177157139545
5.1164897360515305,137.91468292154474
5.136541466905949,142.12362924452432
5.156593197760367,144.04771899217215
5.1766449286147855,145.15777076966128
5.196696659469204,147.42412648203492
5.216748390323621,148.1271592744447
5.236800121178041,148.07165668557022
5.256851852032458,151.4758154698702
5.276903582886876,149.73673435180393
5.296955313741295,146.48058247116916
5.317007044595712,143.27068274792975
5.3370587754501315,140.54180546160234
5.35711050630455,140.2827933801882
5.377162237158967,137.67417170308875
5.397213968013386,139.09873815086647
5.417265698867803,136.6473738089113
5.437317429722222,132.53093180072247
5.457369160576641,128.39598892957548
5.477420891431058,120.81063511673312
5.497472622285477,116.1854193771951
5.517524353139896,112.37424160781578
5.537576083994313,110.6259100582704
5.557627814848732,104.85364081532695
5.577679545703149,104.26161320066609
5.597731276557568,104.01185155073104
5.617783007411987,103.56783083973538
5.637834738266404,99.75665307035605
5.657886469120823,100.17292248691447
5.677938199975241,99.85840781662588
5.697989930829659,99.19237675013241
5.718041661684078,99.11837329829982
5.738093392538495,99.38663581119302
5.7581451233929135,97.6938068505221
5.778196854247333,96.31549256013977
5.79824858510175,96.40799687493053
5.818300315956169,97.2682870024846
5.838352046810587,97.91581720601992
5.858403777665004,96.98152362663325
5.878455508519424,97.90656677454085
5.898507239373842,98.56334740955525
5.9185589702282595,100.65394492382643
5.938610701082678,99.52539228337915
5.958662431937096,98.84086035392752
5.978714162791515,97.70305728200117
5.998765893645933,97.61055296721041
6.01881762450035,97.66605555608487
6.038869355354769,97.13878096177754
6.058921086209188,97.58280167277319
6.0789728170636055,97.70305728200117
6.099024547918024,98.72060474469954
6.119076278772441,96.35249428605607
6.139128009626861,101.19046994961285
6.159179740481279,101.2829742644036
6.179231471335696,104.00260111925196
6.199283202190115,105.25140936892723
6.219334933044533,105.65842835400657
6.2393866638989515,107.83227975158944
6.25943839475337,111.7082105413223
6.279490125607787,116.32417584938125
6.299541856462206,120.07985102988613
6.319593587316625,126.94367118736055
6.339645318171042,133.78899048187682
6.359697049025461,143.89971208850693
6.379748779879879,147.5443820912629
6.399800510734297,151.19830252549792
6.419852241588716,147.47962907090937
6.439903972443134,143.35393663124145
6.459955703297552,134.85279010197056
6.48000743415197,128.821508777613
6.500059165006388,123.84477664187007
6.520110895860807,119.72833463368123
6.540162626715225,117.59148496201466
6.5602143575696426,118.06325696744754
6.580266088424061,116.06516376796712
6.60031781927848,117.79499445455434
6.620369550132898,120.14460405023965
6.640421280987316,118.99755054683423
6.6604730118417335,119.61732945593232
6.680524742696153,122.31845544782253
6.700576473550571,119.98734671509536
6.7206282044049885,124.0297852714516
6.740679935259407,121.77267999055704
6.760731666113825,125.89837243022495
6.780783396968244,124.71431720090322
6.800835127822662,130.66234464194912
6.8208868586770794,135.54657246290128
6.840938589531498,140.95807487816074
6.860990320385917,149.96799513878082
6.8810420512403345,157.80311060155822
6.901093782094753,162.20631598559842
6.921145512949171,165.7307303791264
6.941197243803589,165.91573900870793
6.961248974658008,163.1776112909014
6.981300705512425,157.60885154049762
7.001352436366844,152.04934222157294
7.021404167221262,148.5434286910031
7.0414558980756805,144.75075178458192
7.061507628930099,145.27802637888928
7.081559359784517,138.68246873430806
7.101611090638935,137.06364322546975
7.121662821493353,134.0665034262491
7.141714552347772,131.33762613992167
7.16176628320219,128.59024799063607
7.181818014056608,126.60140522263474
7.201869744911026,123.66901844376763
7.221921475765445,122.14269724972009
7.241973206619863,121.94843818865948
7.262024937474281,121.78193042203611
7.282076668328699,122.29070415338529
7.302128399183117,121.57842092949645
7.322180130037536,122.02244164049209
7.342231860891954,120.22785793355133
7.362283591746372,118.86804450612716
7.38233532260079,120.59787519271438
7.402387053455209,123.65976801228855
7.422438784309627,120.92164029448205
7.442490515164045,121.68017567576628
7.462542246018463,121.4396644573103
7.482593976872881,124.46455555096817
7.5026457077273,120.86613770560758
7.522697438581718,120.45911872052824
7.542749169436136,118.09100826188478
7.562800900290554,115.32512924964104
7.582852631144973,116.17616894571603
7.602904361999391,113.20678044093262
7.622956092853809,114.40933653321251
7.643007823708227,113.50279424826306
7.663059554562645,113.16977871501632
7.6831112854170645,113.28078389276523
7.703163016271482,112.12447995788072
7.7232147471259,113.0217718113511
7.743266477980318,111.78221399315491
7.763318208834737,111.64345752096877
7.783369939689155,112.88301533916496
7.803421670543573,110.2836440935446
7.823473401397991,108.72957160505982
7.84352513225241,107.56401723869624
7.863576863106828,106.7314784055794
7.883628593961246,106.59272193339325
7.903680324815664,107.34200688319841
7.923732055670082,105.8064352576718
7.943783786524501,105.36241454667613
7.963835517378919,104.72413477461988
7.983887248233337,103.10530926578159
8.003938979087756,105.48267015590413
8.023990709942174,101.75474626983647
8.044042440796591,104.82588952088973
8.064094171651009,104.96464599307586
8.084145902505428,103.04055624542805
8.104197633359847,99.92316083697942
8.124249364214265,100.24692593874708
8.144301095068682,100.80195182749165
8.164352825923102,101.35697771623622
8.184404556777519,97.97131979489438
8.204456287631938,99.59014530373268
8.224508018486356,96.8797688803634
8.244559749340775,96.31549256013977
8.264611480195192,97.60130253573134
8.28466321104961,95.04818344750635
8.30471494190403,94.27114720326396
8.324766672758447,94.8724252494039
8.344818403612866,91.88453588166234
8.364870134467283,92.44881220188599
8.3849218653217,91.67177595764359
8.40497359617612,90.89473971340121
8.425025327030538,88.9613995342743
8.445077057884957,89.94194527105637
8.465128788739376,88.11961026967839
8.485180519593792,86.46378303492378
8.505232250448211,85.34448082595559
8.52528398130263,83.68865359120096
8.545335712157048,84.12342387071755
8.565387443011467,84.09567257628031
8.585439173865883,81.9033203157393
8.605490904720302,83.88291265226157
8.625542635574721,81.39454658439011
8.645594366429139,81.72756211763685
8.665646097283558,79.82197323294719
8.685697828137974,80.06248445140317
8.705749558992393,79.85897495886348
8.725801289846812,77.86088175938306
8.74585302070123,76.70457782449856
8.765904751555649,76.60282307822872
8.785956482410068,74.35496822881323
8.806008213264484,73.06915825322167
8.826059944118903,72.65288883666325
8.84611167497332,70.34953139837332
8.86616340582774,69.10997358017713
8.886215136682159,68.71220502657685
8.906266867536575,65.92782515137496
8.926318598390994,66.4550997456823
8.946370329245411,64.65126560726247
8.96642206009983,64.26274748514128
8.98647379095425,62.96768707807063
9.006525521808667,61.73737969135352
9.026577252663085,60.100053319557055
9.046628983517502,60.22955936026412
9.066680714371921,57.815196744225275
9.08673244522634,58.22221572930462
9.106784176080758,56.788398850047834
9.126835906935176,56.788398850047834
9.146887637789593,55.16957334120953
9.166939368644012,55.012316006065234
9.186991099498432,54.235279761822845
9.207042830352849,53.504495674975836
9.227094561207267,52.2464369938215
9.247146292061686,51.67291024211878
9.267198022916103,50.47960458131797
9.287249753770523,47.67672384315793
9.30730148462494,47.46396391913918
9.32735321547936,45.96539401952886
9.347404946333777,45.14210561789109
9.367456677188194,44.550078003230226
9.387508408042613,42.72774300185225
9.407560138897031,41.506686046614206
9.42761186975145,40.415135132083236
9.447663600605868,40.10987089327372
9.467715331460285,37.538250942090585
9.487767062314704,37.12198152553216
9.507818793169124,36.67796081453651
9.527870524023541,35.271895229716954
9.547922254877959,33.375556776506365
9.567973985732376,33.6715705838368
9.588025716586795,32.05274507499849
9.608077447441215,30.766935099406922
9.628129178295632,30.3506656828485
9.648180909150051,28.630085427740354
9.668232640004467,28.07505953899579
9.688284370858886,25.901208141412923
9.708336101713305,25.327681389710207
9.728387832567723,24.38413737884445
9.748439563422142,24.162127023346628
9.768491294276558,22.386044179364024
9.788543025130977,21.396248011102887
9.808594755985396,20.730216944609413
9.828646486839814,19.962431131846103
9.848698217694233,18.79687676548252
9.868749948548652,18.09384397307274
9.888801679403068,16.43801673831813
9.908853410257487,16.891287880792856
9.928905141111905,16.105001205071392
9.948956871966324,15.485222295973298
9.969008602820743,14.837692092437974
9.989060333675159,14.199412320381727
10.009112064529578,13.107861405850754
10.029163795383996,12.821098029999396
10.049215526238415,12.358576456045594
10.069267257092834,12.22907041533853
10.08931898794725,11.563039348845054
10.109370718801669,11.193022089682012
10.129422449656087,10.221726784379028
10.149474180510506,9.70370262155077
10.169525911364925,9.740704347467075
10.189577642219342,9.58344701232278
10.20962937307376,8.843412493996698
10.22968110392818,8.482645666312733
10.249732834782597,8.029374523838007
10.269784565637016,7.835115462777409
10.289836296491433,7.511350361009748
10.30988802734585,7.742611147986649
10.32993975820027,7.159833964804858
10.349991489054688,7.085830512972249
10.370043219909107,6.984075766702413
10.390094950763524,7.492849498051595
10.410146681617944,7.196835690721162
10.430198412472361,6.974825335223337
10.450250143326778,6.900821883390728
10.470301874181198,6.586307213102143
10.490353605035615,7.17833482776301
10.510405335890034,6.8730705889535
10.530457066744452,6.882321020432577
10.55050879759887,6.493802898311382
10.570560528453289,6.651060233455675
10.590612259307708,6.771315842683664
10.610663990162125,6.419799446478774
10.630715721016543,6.438300309436927
10.65076745187096,6.3180447002089375
10.67081918272538,6.493802898311382
10.690870913579799,5.698265791110843
10.710922644434216,6.484552466832307
10.730974375288636,5.89252485217144
10.751026106143051,6.151536933585569
10.77107783699747,5.6150119077991585
10.79112956785189,5.975778735483124
10.811181298706307,6.308794268729862
10.831233029560726,5.84627269477606
10.851284760415142,5.716766654068995
10.871336491269561,5.726017085548071
10.89138822212398,5.383751120822257
10.911439952978398,5.4670050041339415
10.931491683832817,5.550258887445626
10.951543414687237,5.476255435613018
10.971595145541652,5.485505867092094
10.991646876396072,5.420752846738561
