Energy (keV),Intensity (cps),slope,offset,liveTime
-0.016753362679535415,0.0,20.051730854418228,-16.753362679535414,133.20306396484375
0.003298368174882814,0.0
0.023350099029301043,0.0
0.043401829883719274,0.0
0.0634535607381375,0.0
0.08350529159255572,0.0
0.10355702244697396,0.0
0.12360875330139219,0.0
0.14366048415581043,0.0
0.16371221501022865,0.0
0.18376394586464687,0.0
0.2038156767190651,0.0
0.2238674075734833,0.0
0.24391913842790156,0.0
0.2639708692823198,0.0
0.28402260013673797,0.0
0.3040743309911562,0.0
0.32412606184557446,0.0
0.34417779269999266,0.0
0.3642295235544109,0.0
0.3842812544088291,0.0
0.40433298526324735,0.007507334818243594
0.42438471611766554,0.0
0.4444364469720838,0.015014669636487187
0.4644881778265021,0.05255134372770515
0.4845399086809203,0.15765403118311547
0.5045916395353385,0.3303227320027181
0.5246433703897568,0.7582408166426029
0.544695101244175,1.1711442316460006
0.5647468320985932,1.996951061652796
0.5847985629530115,3.5284473645744887
0.6048502938074297,4.842230957767118
0.624902024661848,7.2595927692415545
0.6449537555162661,8.520825018706478
0.6650054863706844,10.727981455270095
0.6850572172251026,13.378070646110084
0.7051089480795208,15.127279658760841
0.725160678933939,16.448570586771712
0.7452124097883572,18.2203016038772
0.7652641406427755,19.489041188160368
0.7853158714971937,20.044583964710394
0.805367602351612,20.067105969165127
0.8254193332060301,20.84786879026246
0.8454710640604484,20.915434803626653
0.8655227949148666,21.313323548993562
0.8855745257692849,20.570097401987447
0.9056262566237031,21.193206191901663
0.9256779874781212,20.555082732350957
0.9457297183325396,19.87191526389079
0.9657814491869579,19.166225790975894
0.9858331800413761,18.8058737197002
1.0058849108957943,18.30288228687788
1.0259366417502125,17.29689942123324
1.0459883726046306,16.388511908225766
1.0660401034590488,16.583702613500098
1.086091834313467,15.615256421946674
1.1061435651678853,14.819478931212853
1.1261952960223034,14.158833467207417
1.1462470268767218,14.008686770842544
1.16629875773114,13.190387275653993
1.1863504885855582,13.05525524892561
1.2064022194399764,12.03425771364448
1.2264539502943947,11.658890972732301
1.2465056811488127,10.915664825726186
1.266557412003231,11.125870200637005
1.2866091428576494,10.187453348356556
1.3066608737120675,10.052321321628172
1.3267126045664859,10.277541366175479
1.346764335420904,10.765518129361313
1.3668160662753224,11.82405233873366
1.3868677971297405,13.085284588198583
1.4069195279841589,15.615256421946674
1.4269712588385768,18.59566834478938
1.4470229896929951,18.65572702333533
1.4670747205474133,18.59566834478938
1.4871264514018316,17.31942142568797
1.5071781822562498,14.22639948057161
1.5272299131106681,12.251970423373544
1.5472816439650863,12.184404410009352
1.5673333748195046,12.424639124193147
1.5873851056739228,12.417131789374903
1.6074368365283411,12.724932516922891
1.627488567382759,11.90663302173434
1.6475402982371774,10.585342093723467
1.6675920290915955,9.414197862077467
1.687643759946014,9.909681960081544
1.707695490800432,9.744520594080184
1.7277472216548504,9.782057268171402
1.7477989525092685,9.98475530826398
1.767850683363687,9.324109844258542
1.787902414218105,8.77607440252676
1.8079541450725232,8.490795679433504
1.8280058759269413,8.640942375798376
1.8480576067813597,8.828625746254465
1.8681093376357778,8.806103741799735
1.8881610684901962,8.318126978613902
1.9082127993446145,8.265575634886197
1.9282645301990327,8.243053630431465
1.948316261053451,7.770091536882119
1.9683679919078692,7.920238233246991
1.9884197227622873,8.152965612612542
2.0084714536167056,7.950267572519966
2.028523184471124,7.424754135242914
2.0485749153255424,8.258068300067952
2.0686266461799607,7.852672219882798
2.0886783770343786,7.664988849426709
2.1087301078887966,7.695018188699684
2.1287818387432154,7.514842153061837
2.1488335695976333,7.514842153061837
2.1688853004520516,7.619944840517247
2.1889370313064695,7.747569532427389
2.2089887621608884,7.267100104059798
2.2290404930153063,7.777598871700363
2.2490922238697246,8.37818565715985
2.2691439547241425,8.588391032070671
2.289195685578561,9.196485152348401
2.3092474164329793,8.75355239807203
2.329299147287397,8.903699094436902
2.3493508781418155,9.354139183531517
2.369402608996234,9.661939911079505
2.3894543398506523,11.200943548819442
2.40950607070507,13.01771857483439
2.4295578015594885,15.780417787948034
2.449609532413907,19.19625513024887
2.469661263268325,22.131623044182113
2.489712994122743,23.85831005237814
2.509764724977161,23.467928641829474
2.52981645583158,21.801300312179396
2.549868186685998,19.609158545252267
2.569919917540416,16.79390798841092
2.5899716483948345,13.115313927471558
2.610023379249253,11.493729606730941
2.630075110103671,10.30006337063021
2.6501268409580887,9.939711299354517
2.6701785718125075,9.39918319244098
2.6902303026669254,9.797071937807889
2.710282033521344,9.451734536168685
2.7303337643757617,9.436719866532197
2.7503854952301805,9.691969250352479
2.7704372260845984,10.600356763359954
2.7904889569390168,12.041765048462723
2.8105406877934347,14.68434690448447
2.830592418647853,18.19777959942247
2.8506441495022714,21.373382227539512
2.8706958803566893,22.754731834096333
2.8907476112111077,23.91836873092409
2.910799342065526,22.386872428002395
2.9308510729199444,19.46651918370564
2.9509028037743623,17.101708715958907
2.9709545346287807,15.31496302921693
2.991006265483199,13.445636659474276
3.011057996337617,13.318011967564134
3.0311097271920353,15.307455694398687
3.0511614580464532,23.385347958828792
3.071213188900872,47.91931814484886
3.09126491975529,99.17189294899786
3.1113166506097083,192.75082145840426
3.131368381464126,322.82290451929276
3.151420112318545,462.90977222771824
3.171471843172963,565.5650685323811
3.1915235740273813,589.3032612276673
3.2115753048817997,534.6348490812175
3.2316270357362176,434.764773994123
3.251678766590636,343.02514251518625
3.271730497445054,296.50969598134895
3.2917822282994726,309.1445404804529
3.3118339591538906,357.747026093762
3.331885690008309,410.06564244210153
3.351937420862727,425.8010162211401
3.3719891517171456,390.7492699547608
3.3920408825715636,316.0963325221465
3.4120926134259815,232.7799307092791
3.4321443442804,155.46188941618834
3.452196075134818,106.52157373605834
3.4722478059892365,72.95627976369124
3.4922995368436545,59.150291032941276
3.512351267698073,54.67591948126809
3.532402998552491,59.030173675849376
3.5524547294069095,64.06759533889083
3.5725064602613275,65.20120289644561
3.5925581911157454,62.055629607601546
3.612609921970164,54.15040604399104
3.632661652824582,45.95990375728728
3.6527133836790004,34.57127683801175
3.6727651145334184,26.03543714966878
3.692816845387837,21.320830883811805
3.712868576242255,18.46804365287924
3.7329203070966734,16.350975234134545
3.7529720379510914,14.962118292759481
3.7730237688055097,13.836018070022943
3.793075499659928,13.07777725338034
3.813127230514346,11.583817624549864
3.833178961368765,10.72047412045185
3.8532306922231827,9.414197862077467
3.873282423077601,8.655957045434864
3.893334153932019,7.987804246611184
3.913385884786438,8.055370259975376
3.9334376156408557,7.957774907338209
3.9534893464952736,7.852672219882798
3.973541077349692,8.325634313432145
3.9935928082041103,8.768567067708517
4.013644539058529,8.430737000887556
4.033696269912947,7.98029691179294
4.0537480007673645,7.634959510153735
4.073799731621784,7.056894729148977
4.093851462476201,6.9367773720570804
4.11390319333062,7.12446074251317
4.133954924185037,8.370678322341607
4.154006655039455,9.894667290445057
4.174058385893874,12.259477758191789
4.194110116748292,14.37654617693648
4.2141618476027105,16.2909165555886
4.234213578457128,18.040125568239354
4.254265309311547,18.78335171524547
4.274317040165966,17.356958099779188
4.294368771020383,16.763878649137943
4.314420501874801,15.660300430856136
4.334472232729219,14.459126859937161
4.354523963583638,14.173848136843905
4.3745756944380565,15.007162301668943
4.394627425292474,14.887044944577045
4.414679156146892,14.984640297214213
4.434730887001312,14.616780891120277
4.454782617855729,13.678364038839828
4.474834348710147,13.025225909652635
4.494886079564566,12.91261588737898
4.514937810418983,13.58076868620266
4.5349895412734025,13.445636659474276
4.55504127212782,14.241414150208097
4.575093002982238,14.954610957941238
4.595144733836657,14.541707542937841
4.615196464691075,13.408099985383059
4.635248195545493,12.064287052917454
4.655299926399912,9.812086607444376
4.675351657254329,7.695018188699684
4.695403388108748,6.16352188577799
4.715455118963166,5.360237060225925
4.735506849817584,4.782172279221169
4.755558580672003,4.40680553830899
4.77561031152642,4.662054922129271
4.795662042380839,4.264166176762361
4.815713773235258,4.609503578401567
4.835765504089675,4.609503578401567
4.855817234944094,4.594488908765079
4.875868965798511,4.549444899855618
4.89592069665293,4.759650274766439
4.915972427507349,4.256658841944118
4.936024158361766,4.256658841944118
4.9560758892161845,4.24164417230763
4.976127620070604,4.339239524944797
4.996179350925021,4.504400890946156
5.0162310817794395,4.9398263104042845
5.036282812633857,5.728096466319862
5.056334543488275,5.773140475229323
5.076386274342695,6.5614106311449
5.096438005197112,6.516366622235439
5.1164897360515305,5.855721158230003
5.136541466905949,6.43378593923476
5.156593197760367,5.720589131501618
5.1766449286147855,5.510383756590797
5.196696659469204,5.104987676405644
5.216748390323621,5.337715055771195
5.236800121178041,4.872260297040092
5.256851852032458,4.834723622948874
5.276903582886876,5.225105033497541
5.296955313741295,5.495369086954311
5.317007044595712,6.065926533140823
5.3370587754501315,5.945809176048926
5.35711050630455,6.186043890232721
5.377162237158967,6.5614106311449
5.397213968013386,6.276131908051644
5.417265698867803,5.900765167139465
5.437317429722222,6.2611172384151565
5.457369160576641,4.962348314859015
5.477420891431058,5.089973006769156
5.497472622285477,4.316717520490066
5.517524353139896,3.7987114180312584
5.537576083994313,4.023931462578566
5.557627814848732,3.851262761758963
5.577679545703149,3.378300668209617
5.597731276557568,3.5734913734839506
5.617783007411987,3.4608813512102965
5.637834738266404,3.36328599857313
5.657886469120823,3.355778663754886
5.677938199975241,3.4533740163920528
5.697989930829659,3.4984180253015147
5.718041661684078,3.2431686414812324
5.738093392538495,3.0780072754798735
5.7581451233929135,3.1605879584805527
5.778196854247333,3.190617297753527
5.79824858510175,3.1305586192075783
5.818300315956169,3.303227320027181
5.838352046810587,3.1455732888440657
5.858403777665004,3.205631967390014
5.878455508519424,3.565984038665707
5.898507239373842,3.7011160653940918
5.9185589702282595,3.5134326949380017
5.938610701082678,4.0014094581238355
5.958662431937096,3.303227320027181
5.978714162791515,3.430852011937322
5.998765893645933,3.4984180253015147
6.01881762450035,3.6035207127569246
6.038869355354769,3.400822672664348
6.058921086209188,3.1155439495710913
6.0789728170636055,3.0179485969339246
6.099024547918024,3.565984038665707
6.119076278772441,3.3182419896636683
6.139128009626861,3.085514610298117
6.159179740481279,2.9503825835697324
6.179231471335696,3.0179485969339246
6.199283202190115,3.340763994118399
6.219334933044533,3.4533740163920528
6.2393866638989515,3.6785940609393606
6.25943839475337,3.6485647216663866
6.279490125607787,3.926336109941399
6.299541856462206,4.864752962221848
6.319593587316625,6.5614106311449
6.339645318171042,7.2595927692415545
6.359697049025461,9.008801781892313
6.379748779879879,10.390151388449134
6.399800510734297,10.870620816816723
6.419852241588716,10.577834758905222
6.439903972443134,9.519300549532877
6.459955703297552,7.920238233246991
6.48000743415197,6.396249265143542
6.500059165006388,5.420295738771874
6.520110895860807,4.586981573946836
6.540162626715225,3.8062187528495017
6.5602143575696426,3.543462034210976
6.580266088424061,3.626042717211656
6.60031781927848,3.5134326949380017
6.620369550132898,3.633550052029899
6.640421280987316,3.3933153378461043
6.6604730118417335,3.4608813512102965
6.680524742696153,3.28070531557245
6.700576473550571,3.228153971844745
6.7206282044049885,3.273197980754207
6.740679935259407,3.558476703847463
6.760731666113825,3.3707933333913735
6.780783396968244,3.55096936902922
6.800835127822662,3.4533740163920528
6.8208868586770794,3.580998708302194
6.840938589531498,3.198124632571771
6.860990320385917,3.2431686414812324
6.8810420512403345,3.558476703847463
6.901093782094753,3.2957199852089376
6.921145512949171,3.378300668209617
6.941197243803589,3.400822672664348
6.961248974658008,3.9038141054866684
6.981300705512425,3.783696748394771
7.001352436366844,4.174078158943438
7.021404167221262,4.32422485530831
7.0414558980756805,4.526922895400887
7.061507628930099,4.842230957767118
7.081559359784517,4.541937565037374
7.101611090638935,4.0614681366697845
7.121662821493353,4.226629502671143
7.141714552347772,3.933843444759643
7.16176628320219,3.65607205648463
7.181818014056608,3.4984180253015147
7.201869744911026,3.4608813512102965
7.221921475765445,3.303227320027181
7.241973206619863,3.1605879584805527
7.262024937474281,3.2957199852089376
7.282076668328699,3.3182419896636683
7.302128399183117,3.5209400297562454
7.322180130037536,3.355778663754886
7.342231860891954,3.7386527394853095
7.362283591746372,3.5359546993927324
7.38233532260079,3.716130735030579
7.402387053455209,4.264166176762361
7.422438784309627,4.151556154488707
7.442490515164045,4.564459569492104
7.462542246018463,4.7070989310387334
7.482593976872881,4.639532917674541
7.5026457077273,4.391790868672502
7.522697438581718,4.234136837489387
7.542749169436136,3.7761894135765273
7.562800900290554,3.858770096577207
7.582852631144973,3.558476703847463
7.602904361999391,3.5734913734839506
7.622956092853809,3.5209400297562454
7.643007823708227,3.5209400297562454
7.663059554562645,3.2957199852089376
7.6831112854170645,3.580998708302194
7.703163016271482,3.821233422485989
7.7232147471259,4.023931462578566
7.743266477980318,3.641057386848143
7.763318208834737,3.7236380698488225
7.783369939689155,3.6710867261211173
7.803421670543573,4.0314387973968095
7.823473401397991,4.008916792942079
7.84352513225241,3.821233422485989
7.863576863106828,3.918828775123156
7.883628593961246,4.159063489306951
7.903680324815664,4.151556154488707
7.923732055670082,4.369268864217771
7.943783786524501,4.309210185671823
7.963835517378919,4.782172279221169
7.983887248233337,4.969855649677259
8.003938979087756,5.607979109227964
8.023990709942174,5.743111135956349
8.044042440796591,6.411263934780028
8.064094171651009,5.818184484138785
8.084145902505428,5.57794976995499
8.104197633359847,4.902289636313067
8.124249364214265,4.504400890946156
8.144301095068682,4.32422485530831
8.164352825923102,4.0314387973968095
8.184404556777519,4.294195516035336
8.204456287631938,3.8287407573042325
8.224508018486356,4.008916792942079
8.244559749340775,3.933843444759643
8.264611480195192,3.8887994358501814
8.28466321104961,4.271673511580604
8.30471494190403,3.8887994358501814
8.324766672758447,4.204107498216413
8.344818403612866,4.264166176762361
8.364870134467283,4.481878886491425
8.3849218653217,4.286688181217092
8.40497359617612,4.3542541945812845
8.425025327030538,4.234136837489387
8.445077057884957,4.294195516035336
8.465128788739376,4.076482806306271
8.485180519593792,4.316717520490066
8.505232250448211,4.249151507125874
8.52528398130263,4.294195516035336
8.545335712157048,4.181585493761681
8.565387443011467,3.9563654492143736
8.585439173865883,4.294195516035336
8.605490904720302,4.421820207945476
8.625542635574721,4.40680553830899
8.645594366429139,3.9488581143961303
8.665646097283558,4.264166176762361
8.685697828137974,4.144048819670464
8.705749558992393,3.8887994358501814
8.725801289846812,3.9788874536691043
8.74585302070123,4.106512145579246
8.765904751555649,3.993902123305592
8.785956482410068,4.144048819670464
8.806008213264484,3.971380118850861
8.826059944118903,4.459356882036695
8.84611167497332,4.6470402524927845
8.86616340582774,4.444342212400207
8.886215136682159,4.421820207945476
8.906266867536575,4.556952234673862
8.926318598390994,4.549444899855618
8.946370329245411,4.421820207945476
8.96642206009983,4.541937565037374
8.98647379095425,4.309210185671823
9.006525521808667,4.541937565037374
9.026577252663085,3.986394788487348
9.046628983517502,4.286688181217092
9.066680714371921,3.8887994358501814
9.08673244522634,3.9638727840326173
9.106784176080758,3.911321440304912
9.126835906935176,3.6635793913028736
9.146887637789593,3.9488581143961303
9.166939368644012,4.114019480397489
9.186991099498432,3.7987114180312584
9.207042830352849,3.993902123305592
9.227094561207267,4.151556154488707
9.247146292061686,4.226629502671143
9.267198022916103,3.993902123305592
9.287249753770523,4.106512145579246
9.30730148462494,4.023931462578566
9.32735321547936,4.144048819670464
9.347404946333777,3.911321440304912
9.367456677188194,4.046453467033297
9.387508408042613,4.234136837489387
9.407560138897031,3.7761894135765273
9.42761186975145,4.046453467033297
9.447663600605868,3.8662774313954507
9.467715331460285,4.083990141124515
9.487767062314704,4.226629502671143
9.507818793169124,3.926336109941399
9.527870524023541,4.24164417230763
9.547922254877959,4.32422485530831
9.567973985732376,4.016424127760322
9.588025716586795,4.594488908765079
9.608077447441215,4.436834877581964
9.628129178295632,4.541937565037374
9.648180909150051,4.692084261402246
9.668232640004467,4.797186948857656
9.688284370858886,5.01489965858672
9.708336101713305,4.684576926584002
9.728387832567723,4.834723622948874
9.748439563422142,4.669562256947515
9.768491294276558,4.9398263104042845
9.788543025130977,5.0299143282232075
9.808594755985396,4.894782301494823
9.828646486839814,4.7070989310387334
9.848698217694233,4.932318975586041
9.868749948548652,4.82721628813063
9.888801679403068,4.6470402524927845
9.908853410257487,4.947333645222528
9.928905141111905,5.104987676405644
9.948956871966324,4.789679614039413
9.969008602820743,4.339239524944797
9.989060333675159,4.526922895400887
10.009112064529578,4.226629502671143
10.029163795383996,3.926336109941399
10.049215526238415,4.24164417230763
10.069267257092834,4.271673511580604
10.08931898794725,4.129034150033976
10.109370718801669,4.294195516035336
10.129422449656087,4.174078158943438
10.149474180510506,4.279180846398848
10.169525911364925,4.0014094581238355
10.189577642219342,4.0614681366697845
10.20962937307376,4.196600163398169
10.22968110392818,4.361761529399527
10.249732834782597,4.316717520490066
10.269784565637016,4.421820207945476
10.289836296491433,4.331732190126553
10.30988802734585,4.53443023021913
10.32993975820027,4.4143128731272325
10.349991489054688,4.361761529399527
10.370043219909107,4.541937565037374
10.390094950763524,4.496893556127913
10.410146681617944,4.519415560582643
10.430198412472361,4.834723622948874
10.450250143326778,4.849738292585362
10.470301874181198,4.969855649677259
10.490353605035615,4.789679614039413
10.510405335890034,5.044928997859695
10.530457066744452,5.457832412863093
10.55050879759887,5.720589131501618
10.570560528453289,5.4127884039536305
10.590612259307708,5.3902663994989
10.610663990162125,5.442817743226605
10.630715721016543,5.277656377225246
10.65076745187096,5.067451002314425
10.67081918272538,4.924811640767797
10.690870913579799,5.532905761045528
10.710922644434216,5.104987676405644
10.730974375288636,5.4127884039536305
10.751026106143051,5.0299143282232075
10.77107783699747,5.780647810047567
10.79112956785189,5.653023118137426
10.811181298706307,5.825691818957028
10.831233029560726,5.668037787773913
10.851284760415142,5.517891091409041
10.871336491269561,5.945809176048926
10.89138822212398,5.87073582786649
10.911439952978398,6.306161247324618
10.931491683832817,6.050911863504337
10.951543414687237,5.840706488593516
10.971595145541652,7.041880059512491
10.991646876396072,6.681527988236798
11.011698607250489,6.981821380966542
