Energy (keV),Intensity (cps),slope,offset,liveTime
-0.016753362679535415,0.0,20.051730854418228,-16.753362679535414,126.71147918701172
0.003298368174882814,0.0
0.023350099029301043,0.0
0.043401829883719274,0.0
0.0634535607381375,0.0
0.08350529159255572,0.0
0.10355702244697396,0.0
0.12360875330139219,0.0
0.14366048415581043,0.0
0.16371221501022865,0.0
0.18376394586464687,0.0
0.2038156767190651,0.0
0.2238674075734833,0.0
0.24391913842790156,0.0
0.2639708692823198,0.0
0.28402260013673797,0.0
0.3040743309911562,0.0
0.32412606184557446,0.0
0.34417779269999266,0.0
0.3642295235544109,0.0
0.3842812544088291,0.0
0.40433298526324735,0.0
0.42438471611766554,0.007891944805759183
0.4444364469720838,0.02367583441727755
0.4644881778265021,0.055243613640314285
0.4845399086809203,0.07102750325183264
0.5045916395353385,0.21308250975549795
0.5246433703897568,0.41038112989947756
0.544695101244175,0.7497347565471224
0.5647468320985932,1.2548192241157101
0.5847985629530115,2.454394834591106
0.6048502938074297,3.354076542447653
0.624902024661848,4.553652152923049
0.6449537555162661,6.637125581643473
0.6650054863706844,8.933681520119395
0.6850572172251026,11.380184409904743
0.7051089480795208,12.027323883976996
0.725160678933939,13.05327670872569
0.7452124097883572,12.824410309358672
0.7652641406427755,13.897714802941922
0.7853158714971937,14.308095932841399
0.805367602351612,13.321602832121501
0.8254193332060301,12.161486945674902
0.8454710640604484,11.143426065731967
0.8655227949148666,9.904390731227775
0.8855745257692849,8.649571507112064
0.9056262566237031,8.720599010363898
0.9256779874781212,8.065567591485886
0.9457297183325396,7.647294516780649
0.9657814491869579,7.418428117413632
0.9858331800413761,7.134318104406302
1.0058849108957943,7.315832834938763
1.0259366417502125,6.558206133585881
1.0459883726046306,6.542422243974363
1.0660401034590488,6.1399330588806444
1.086091834313467,5.974202217959702
1.1061435651678853,5.6900922049523714
1.1261952960223034,5.958418328348183
1.1462470268767218,5.398090247139281
1.16629875773114,5.469117750391114
1.1863504885855582,5.161331902966506
1.2064022194399764,5.745335818592685
1.2264539502943947,5.3901983023335225
1.2465056811488127,5.295494964664412
1.266557412003231,5.042952730880118
1.2866091428576494,5.098196344520432
1.3066608737120675,5.058736620491636
1.3267126045664859,4.893005779570694
1.346764335420904,5.177115792578024
1.3668160662753224,5.256035240635616
1.3868677971297405,5.563821088060224
1.4069195279841589,6.053121666017294
1.4269712588385768,6.976479208291118
1.4470229896929951,8.20762259798955
1.4670747205474133,9.84914711758746
1.4871264514018316,10.204284633846624
1.5071781822562498,9.138872085069135
1.5272299131106681,7.599942847946093
1.5472816439650863,5.887390825096351
1.5673333748195046,5.8400391562617955
1.5873851056739228,5.263927185441375
1.6074368365283411,5.398090247139281
1.627488567382759,5.177115792578024
1.6475402982371774,5.824255266650277
1.6675920290915955,5.942634438736665
1.687643759946014,6.842316146593212
1.707695490800432,8.183946763572273
1.7277472216548504,8.389137328522011
1.7477989525092685,8.823194292838767
1.767850683363687,8.278650101241384
1.787902414218105,7.994540088234053
1.8079541450725232,8.436488997356568
1.8280058759269413,10.062229627342958
1.8480576067813597,12.911221702222024
1.8681093376357778,16.730922988209468
1.8881610684901962,18.94066753382204
1.9082127993446145,19.579915063088535
1.9282645301990327,18.490826679893768
1.948316261053451,15.562915156957109
1.9683679919078692,12.942789481445061
1.9884197227622873,12.240406393732494
2.0084714536167056,10.275312137098457
2.028523184471124,9.430874042882223
2.0485749153255424,9.107304305846098
2.0686266461799607,7.868268971341906
2.0886783770343786,8.79951845842149
2.1087301078887966,8.910005685702117
2.1287818387432154,8.744274844781176
2.1488335695976333,9.912282676033534
2.1688853004520516,10.33844769554453
2.1889370313064695,11.853701098250294
2.2089887621608884,14.363339546481713
2.2290404930153063,16.375785471950305
2.2490922238697246,16.959789387576485
2.2691439547241425,17.827903316209994
2.289195685578561,18.38033945261314
2.3092474164329793,21.979066284039327
2.329299147287397,36.89484196692418
2.3493508781418155,75.07607093718711
2.369402608996234,145.62216555586846
2.3894543398506523,244.79234398503834
2.40950607070507,350.23661853478677
2.4295578015594885,423.5606777250954
2.449609532413907,450.63004840884935
2.469661263268325,443.1090250089609
2.489712994122743,428.1380057124357
2.509764724977161,421.45352846195766
2.52981645583158,405.29871744456864
2.549868186685998,357.5287755353083
2.569919917540416,283.74698354626565
2.5899716483948345,202.32578898524818
2.610023379249253,127.96788502538516
2.630075110103671,74.30266034622271
2.6501268409580887,43.49250782453886
2.6701785718125075,27.235101524674942
2.6902303026669254,22.69723326136341
2.710282033521344,23.423292183493256
2.7303337643757617,25.285791157652422
2.7503854952301805,25.775091735609493
2.7704372260845984,23.96783637509064
2.7904889569390168,21.16619596904613
2.8105406877934347,17.48854968956235
2.830592418647853,13.668848403574906
2.8506441495022714,11.419644133933538
2.8706958803566893,9.651848497443481
2.8907476112111077,9.809687393558665
2.910799342065526,11.025046893645579
2.9308510729199444,13.195331715229354
2.9509028037743623,14.173932871143494
2.9709545346287807,14.031877864639828
2.991006265483199,13.629388679546109
3.011057996337617,12.3745694554304
3.0311097271920353,11.482779692379612
3.0511614580464532,9.557145159774372
3.071213188900872,9.415090153270706
3.09126491975529,9.57292904938589
3.1113166506097083,9.130980140263375
3.131368381464126,10.71726104622097
3.151420112318545,12.548192241157102
3.171471843172963,13.368954500956056
3.1915235740273813,14.939451517302134
3.2115753048817997,15.483995708899517
3.2316270357362176,15.37350848161889
3.251678766590636,15.049938744582763
3.271730497445054,13.960850361387996
3.2917822282994726,12.611327799603176
3.3118339591538906,10.914559666364951
3.331885690008309,9.37563042924191
3.351937420862727,8.831086237644525
3.3719891517171456,8.026107867457089
3.3920408825715636,6.913343649845045
3.4120926134259815,6.944911429068081
3.4321443442804,6.534530299168604
3.452196075134818,6.692369195283788
3.4722478059892365,6.258312230967032
3.4922995368436545,6.037337776405775
3.512351267698073,6.313555844607347
3.532402998552491,6.818640312175934
3.5524547294069095,6.5739900231974
3.5725064602613275,6.692369195283788
3.5925581911157454,6.274096120578551
3.612609921970164,6.218852506938236
3.632661652824582,6.581881968003159
3.6527133836790004,6.810748367370175
3.6727651145334184,6.787072532952898
3.692816845387837,6.6213416920319546
3.712868576242255,6.913343649845045
3.7329203070966734,6.794964477758657
3.7529720379510914,6.5108544647513265
3.7730237688055097,6.3609075134419015
3.793075499659928,6.029445831600016
3.813127230514346,6.08468944524033
3.833178961368765,6.08468944524033
3.8532306922231827,6.226744451743996
3.873282423077601,5.918958604319387
3.893334153932019,6.424043071887975
3.913385884786438,6.258312230967032
3.9334376156408557,6.116257224463367
3.9534893464952736,6.155716948492163
3.973541077349692,6.1872847277152
3.9935928082041103,5.5401452536429465
4.013644539058529,5.492793584808392
4.033696269912947,4.948249393211008
4.0537480007673645,5.516469419225669
4.073799731621784,4.987709117239804
4.093851462476201,5.240251351024098
4.11390319333062,4.853546055541898
4.133954924185037,5.169223847772265
4.154006655039455,4.916681613987971
4.174058385893874,4.995601062045563
4.194110116748292,4.498408539282734
4.2141618476027105,4.656247435397918
4.234213578457128,4.7193829938439915
4.254265309311547,4.624679656174881
4.274317040165966,4.73516688345551
4.294368771020383,4.340569643167551
4.314420501874801,4.522084373700012
4.334472232729219,4.790410497095825
4.354523963583638,4.790410497095825
4.3745756944380565,4.7193829938439915
4.394627425292474,4.482624649671216
4.414679156146892,4.585219932146085
4.434730887001312,4.482624649671216
4.454782617855729,4.8298702211246205
4.474834348710147,4.964033282822526
4.494886079564566,4.995601062045563
4.514937810418983,5.437549971168077
4.5349895412734025,4.877221889959175
4.55504127212782,4.893005779570694
4.575093002982238,4.624679656174881
4.595144733836657,4.301109919138755
4.615196464691075,4.072243519771739
4.635248195545493,4.103811298994775
4.655299926399912,4.230082415886923
4.675351657254329,4.601003821757604
4.695403388108748,4.45105687044818
4.715455118963166,4.498408539282734
4.735506849817584,4.403705201613624
4.755558580672003,4.782518552290065
4.77561031152642,4.190622691858127
4.795662042380839,4.230082415886923
4.815713773235258,4.182730747052367
4.835765504089675,4.727274938649751
4.855817234944094,4.695707159426714
4.875868965798511,4.656247435397918
4.89592069665293,4.522084373700012
4.915972427507349,4.427381036030902
4.936024158361766,4.782518552290065
4.9560758892161845,4.356353532779069
4.976127620070604,4.403705201613624
4.996179350925021,4.672031325009437
5.0162310817794395,4.506300484088493
5.036282812633857,4.522084373700012
5.056334543488275,4.285326029527236
5.076386274342695,4.356353532779069
5.096438005197112,4.166946857440848
5.1164897360515305,4.072243519771739
5.136541466905949,4.277434084721477
5.156593197760367,4.001216016519906
5.1766449286147855,4.080135464577498
5.196696659469204,4.4194890912251426
5.216748390323621,3.930188513268073
5.236800121178041,4.206406581469644
5.256851852032458,4.372137422390588
5.276903582886876,4.7193829938439915
5.296955313741295,4.853546055541898
5.317007044595712,5.2797110750528935
5.3370587754501315,5.5796049776717425
5.35711050630455,6.163608893297922
5.377162237158967,7.015938932319914
5.397213968013386,8.097135370708923
5.417265698867803,7.663078406392167
5.437317429722222,7.457887841442428
5.457369160576641,6.834424201787453
5.477420891431058,6.305663899801588
5.497472622285477,5.327062743887449
5.517524353139896,4.664139380203677
5.537576083994313,4.356353532779069
5.557627814848732,4.466840760059697
5.577679545703149,4.474732704865457
5.597731276557568,4.166946857440848
5.617783007411987,4.4194890912251426
5.637834738266404,4.45105687044818
5.657886469120823,4.001216016519906
5.677938199975241,4.482624649671216
5.697989930829659,4.53786826331153
5.718041661684078,4.45105687044818
5.738093392538495,4.380029367196347
5.7581451233929135,4.601003821757604
5.778196854247333,4.656247435397918
5.79824858510175,4.774626607484306
5.818300315956169,4.34846158797331
5.838352046810587,4.656247435397918
5.858403777665004,4.679923269815196
5.878455508519424,4.656247435397918
5.898507239373842,4.679923269815196
5.9185589702282595,5.0271688412686
5.938610701082678,5.0903043997146735
5.958662431937096,5.074520510103155
5.978714162791515,5.137656068549228
5.998765893645933,4.806194386707342
6.01881762450035,4.7193829938439915
6.038869355354769,4.277434084721477
6.058921086209188,4.4194890912251426
6.0789728170636055,4.435272980836661
6.099024547918024,4.7588427178727875
6.119076278772441,4.885113834764934
6.139128009626861,4.648355490592159
6.159179740481279,4.44316492564242
6.179231471335696,4.372137422390588
6.199283202190115,4.711491049038233
6.219334933044533,4.577327987340326
6.2393866638989515,4.814086331513102
6.25943839475337,5.469117750391114
6.279490125607787,6.061013610823053
6.299541856462206,7.047506711542951
6.319593587316625,8.933681520119395
6.339645318171042,10.480502702048195
6.359697049025461,13.02960087430841
6.379748779879879,14.41069121531627
6.399800510734297,15.018370965359725
6.419852241588716,13.945066471776476
6.439903972443134,13.084844487948725
6.459955703297552,11.190777734566522
6.48000743415197,9.667632387054999
6.500059165006388,7.126426159600543
6.520110895860807,6.061013610823053
6.540162626715225,5.12187217893771
6.5602143575696426,5.137656068549228
6.580266088424061,4.877221889959175
6.60031781927848,4.861438000347657
6.620369550132898,5.035060786074359
6.640421280987316,4.766734662678547
6.6604730118417335,4.490516594476976
6.680524742696153,4.3090018639445145
6.700576473550571,4.790410497095825
6.7206282044049885,4.316893808750273
6.740679935259407,5.035060786074359
6.760731666113825,4.664139380203677
6.780783396968244,4.664139380203677
6.800835127822662,4.73516688345551
6.8208868586770794,4.8298702211246205
6.840938589531498,4.774626607484306
6.860990320385917,4.703599104232473
6.8810420512403345,4.743058828261269
6.901093782094753,5.185007737383783
6.921145512949171,5.185007737383783
6.941197243803589,5.334954688693208
6.961248974658008,5.421766081556559
6.981300705512425,5.327062743887449
7.001352436366844,6.147825003686404
7.021404167221262,5.863714990679073
7.0414558980756805,6.337231679024624
7.061507628930099,6.873883925816249
7.081559359784517,6.739720864118342
7.101611090638935,5.942634438736665
7.121662821493353,5.982094162765461
7.141714552347772,5.555929143254465
7.16176628320219,5.0903043997146735
7.181818014056608,5.050844675685878
7.201869744911026,4.916681613987971
7.221921475765445,5.0903043997146735
7.241973206619863,5.21657551660682
7.262024937474281,4.964033282822526
7.282076668328699,5.177115792578024
7.302128399183117,5.185007737383783
7.322180130037536,4.956141338016767
7.342231860891954,5.658524425729334
7.362283591746372,5.342846633498967
7.38233532260079,5.477009695196873
7.402387053455209,5.784795542621481
7.422438784309627,5.847931101067555
7.442490515164045,6.029445831600016
7.462542246018463,6.502962519945567
7.482593976872881,6.589773912808918
7.5026457077273,5.966310273153943
7.522697438581718,6.1715008381036816
7.542749169436136,6.147825003686404
7.562800900290554,6.147825003686404
7.582852631144973,6.1399330588806444
7.602904361999391,5.532253308837188
7.622956092853809,6.195176672520959
7.643007823708227,6.09258139004609
7.663059554562645,6.3609075134419015
7.6831112854170645,6.755504753729861
7.703163016271482,6.447718906305253
7.7232147471259,6.1399330588806444
7.743266477980318,6.313555844607347
7.763318208834737,5.879498880290591
7.783369939689155,6.124149169269126
7.803421670543573,6.076797500434571
7.823473401397991,5.903174714707869
7.84352513225241,5.784795542621481
7.863576863106828,5.769011653009963
7.883628593961246,6.203068617326718
7.903680324815664,6.068905555628812
7.923732055670082,6.76339669853562
7.943783786524501,6.873883925816249
7.963835517378919,7.686754240809445
7.983887248233337,8.199730653183792
8.003938979087756,9.17043986429217
8.023990709942174,9.486117656522538
8.044042440796591,9.943850455256571
8.064094171651009,9.533469325357094
8.084145902505428,8.88632985128484
8.104197633359847,7.836701192118869
8.124249364214265,7.394752282996355
8.144301095068682,6.873883925816249
8.164352825923102,6.17939278290944
8.184404556777519,6.147825003686404
8.204456287631938,6.068905555628812
8.224508018486356,5.5796049776717425
8.244559749340775,5.974202217959702
8.264611480195192,5.776903597815722
8.28466321104961,5.855823045873314
8.30471494190403,5.942634438736665
8.324766672758447,5.863714990679073
8.344818403612866,5.784795542621481
8.364870134467283,5.958418328348183
8.3849218653217,6.313555844607347
8.40497359617612,6.029445831600016
8.425025327030538,6.447718906305253
8.445077057884957,6.652909471254992
8.465128788739376,6.08468944524033
8.485180519593792,6.108365279657608
8.505232250448211,6.431935016693735
8.52528398130263,7.079074490765987
8.545335712157048,6.787072532952898
8.565387443011467,7.071182545960228
8.585439173865883,6.968587263485359
8.605490904720302,7.655186461586408
8.625542635574721,7.189561718046616
8.645594366429139,7.544699234305779
8.665646097283558,7.623618682363371
8.685697828137974,7.686754240809445
8.705749558992393,7.726213964838241
8.725801289846812,7.315832834938763
8.74585302070123,7.876160916147665
8.765904751555649,8.183946763572273
8.785956482410068,8.073459536291644
8.806008213264484,8.49962455580264
8.826059944118903,9.18622375390369
8.84611167497332,9.501901546134057
8.86616340582774,10.062229627342958
8.886215136682159,10.72515299102673
8.906266867536575,11.088182452091653
8.926318598390994,11.948404435919404
8.946370329245411,13.42419811459637
8.96642206009983,14.734260952352395
8.98647379095425,16.652003540151878
9.006525521808667,19.406292277361832
9.026577252663085,22.2158246282121
9.046628983517502,24.03886387834247
9.066680714371921,26.130229251868656
9.08673244522634,27.613914875351384
9.106784176080758,27.495535703264995
9.126835906935176,27.905916833164472
9.146887637789593,27.684942378603214
9.166939368644012,27.108830407782794
9.186991099498432,27.850673219524158
9.207042830352849,33.02778901210218
9.227094561207267,42.09563359391949
9.247146292061686,59.95510468935252
9.267198022916103,91.03358333443218
9.287249753770523,138.9219044157789
9.30730148462494,213.2482405964189
9.32735321547936,303.1927355476563
9.347404946333777,412.71714556198225
9.367456677188194,523.2359406218338
9.387508408042613,623.1795296419682
9.407560138897031,691.2870133156699
9.42761186975145,706.9998754239365
9.447663600605868,675.881937054828
9.467715331460285,595.3525322568613
9.487767062314704,497.12938720438245
9.507818793169124,387.04464910884764
9.527870524023541,279.82468697780337
9.547922254877959,196.8093195660225
9.567973985732376,128.99383785013384
9.588025716586795,88.23983487319343
9.608077447441215,59.65521078673367
9.628129178295632,43.37412865245247
9.648180909150051,34.740341034951925
9.668232640004467,30.63652973595715
9.688284370858886,28.97922132674772
9.708336101713305,27.969052391610546
9.728387832567723,26.635313719437242
9.748439563422142,25.009573089450853
9.768491294276558,23.281237176989592
9.788543025130977,22.69723326136341
9.808594755985396,19.864025076095864
9.828646486839814,18.74336891367806
9.848698217694233,18.37244750780738
9.868749948548652,16.88876188432465
9.888801679403068,16.71513909859795
9.908853410257487,16.730922988209468
9.928905141111905,16.32843380311575
9.948956871966324,17.00714105641104
9.969008602820743,16.8019504914613
9.989060333675159,17.070276614857114
10.009112064529578,17.164979952526224
10.029163795383996,18.632881686397432
10.049215526238415,18.664449465620468
10.069267257092834,19.650942566340365
10.08931898794725,20.511164550168118
10.109370718801669,21.513441540499535
10.129422449656087,23.044478832816814
10.149474180510506,25.71984812196918
10.169525911364925,27.66126654418594
10.189577642219342,29.610576911208454
10.20962937307376,31.236317541194847
10.22968110392818,34.63774575247706
10.249732834782597,36.113539431154024
10.269784565637016,35.72683413567182
10.289836296491433,37.43149421371581
10.30988802734585,37.01322113901057
10.32993975820027,37.905010902061356
10.349991489054688,37.77084784036345
10.370043219909107,40.68297547368859
10.390094950763524,41.18805994125718
10.410146681617944,44.021268126524724
10.430198412472361,49.056328912599085
10.450250143326778,51.629102919276576
10.470301874181198,61.10732863099336
10.490353605035615,73.98698255399235
10.510405335890034,90.69422970778453
10.530457066744452,121.35443527815896
10.55050879759887,171.657691470068
10.570560528453289,260.1342846874342
10.590612259307708,405.39342078223774
10.610663990162125,634.196684590808
10.630715721016543,984.7174131386021
10.65076745187096,1500.8821712144756
10.67081918272538,2239.5524211439238
10.690870913579799,3241.900438978592
10.710922644434216,4582.071046168588
10.730974375288636,6263.055289795294
10.751026106143051,8213.170635188
10.77107783699747,10296.225790833718
10.79112956785189,12250.807976986483
10.811181298706307,13713.54048700992
10.831233029560726,14490.33672229599
10.851284760415142,14328.796504066906
10.871336491269561,13284.636962651326
10.89138822212398,11493.26019508166
10.911439952978398,9298.936509619542
10.931491683832817,7056.227310553315
10.951543414687237,5009.088395718605
10.971595145541652,3339.294929826466
10.991646876396072,2102.232581523714
11.011698607250489,1270.5084103895595
11.031750338104908,744.1788274038679
