Energy (keV),Intensity (cps),slope,offset,liveTime
-0.016753362679535415,0.0,20.051730854418228,-16.753362679535414,30.416662216186523
0.003298368174882814,0.0
0.023350099029301043,0.0
0.043401829883719274,0.0
0.0634535607381375,0.0
0.08350529159255572,0.0
0.10355702244697396,0.0
0.12360875330139219,0.0
0.14366048415581043,0.0
0.16371221501022865,0.0
0.18376394586464687,0.0
0.2038156767190651,0.0
0.2238674075734833,0.0
0.24391913842790156,0.0
0.2639708692823198,0.0
0.28402260013673797,0.0
0.3040743309911562,0.0
0.32412606184557446,0.0
0.34417779269999266,0.0
0.3642295235544109,0.0
0.3842812544088291,0.0
0.40433298526324735,0.0
0.42438471611766554,0.0
0.4444364469720838,0.0
0.4644881778265021,0.09863015141758456
0.4845399086809203,0.16438358569597428
0.5045916395353385,0.4273973228095331
0.5246433703897568,0.8219179284798713
0.544695101244175,1.2493152512894043
0.5647468320985932,1.7424660083773273
0.5847985629530115,3.0246579768059267
0.6048502938074297,4.1095896423993565
0.624902024661848,5.852055650776684
0.6449537555162661,6.936987316370114
0.6650054863706844,6.969864033509309
0.6850572172251026,8.416439587633883
0.7051089480795208,9.33698766753134
0.725160678933939,9.731508273201676
0.7452124097883572,10.98082352449108
0.7652641406427755,11.112330393047861
0.7853158714971937,10.816439938795106
0.805367602351612,9.172604081835365
0.8254193332060301,10.849316655934302
0.8454710640604484,10.98082352449108
0.8655227949148666,10.947946807351887
0.8855745257692849,9.00822049613939
0.9056262566237031,9.731508273201676
0.9256779874781212,10.02739872745443
0.9457297183325396,8.580823173329858
0.9657814491869579,8.712330041886636
0.9858331800413761,7.331507922040452
1.0058849108957943,7.167124336344478
1.0259366417502125,8.054795699102739
1.0459883726046306,7.331507922040452
1.0660401034590488,6.77260373067414
1.086091834313467,7.0027407506485035
1.1061435651678853,6.739727013534945
1.1261952960223034,6.641096862117361
1.1462470268767218,6.410959842142996
1.16629875773114,7.101370902066089
1.1863504885855582,6.673973579256555
1.2064022194399764,6.279452973586217
1.2264539502943947,7.068494184926894
1.2465056811488127,6.410959842142996
1.266557412003231,7.594521659154011
1.2866091428576494,8.021918981963545
1.3066608737120675,11.605481150135784
1.3267126045664859,20.84383866624954
1.346764335420904,30.246579768059267
1.3668160662753224,45.534253237784874
1.3868677971297405,56.74521378225032
1.4069195279841589,54.08219969397553
1.4269712588385768,47.802746720389315
1.4470229896929951,39.5835674355906
1.4670747205474133,32.05479921071498
1.4871264514018316,24.624661137256947
1.5071781822562498,19.331509677846572
1.5272299131106681,13.34794715851311
1.5472816439650863,9.600001404644898
1.5673333748195046,7.298631204901257
1.5873851056739228,6.641096862117361
1.6074368365283411,7.167124336344478
1.627488567382759,7.726028527710791
1.6475402982371774,7.660275093432401
1.6675920290915955,8.252056001937909
1.687643759946014,10.91507009021269
1.707695490800432,13.512330744209084
1.7277472216548504,14.235618521271372
1.7477989525092685,14.268495238410566
1.767850683363687,14.367125389828152
1.787902414218105,10.750686504516716
1.8079541450725232,10.619179635959938
1.8280058759269413,10.816439938795106
1.8480576067813597,10.750686504516716
1.8681093376357778,10.783563221655912
1.8881610684901962,11.671234584414172
1.9082127993446145,11.408220847300614
1.9282645301990327,9.863015141758456
1.948316261053451,11.013700241630277
1.9683679919078692,10.15890559601121
1.9884197227622873,10.750686504516716
2.0084714536167056,10.520549484542354
2.028523184471124,8.87671362758261
2.0485749153255424,10.783563221655912
2.0686266461799607,10.389042615985574
2.0886783770343786,10.750686504516716
2.1087301078887966,10.323289181707183
2.1287818387432154,11.178083827326251
2.1488335695976333,10.454796050263964
2.1688853004520516,10.487672767403158
2.1889370313064695,10.783563221655912
2.2089887621608884,12.000001755806121
2.2290404930153063,11.506850998718198
2.2490922238697246,11.704111301553368
2.2691439547241425,11.967125038666927
2.289195685578561,12.953426552842773
2.3092474164329793,13.775344481322644
2.329299147287397,13.052056704260357
2.3493508781418155,12.624659381450824
2.369402608996234,12.000001755806121
2.3894543398506523,13.906851349879423
2.40950607070507,12.131508624362901
2.4295578015594885,11.539727715857394
2.449609532413907,12.263015492919681
2.469661263268325,12.131508624362901
2.489712994122743,11.37534413016142
2.509764724977161,11.473974281579004
2.52981645583158,11.835618170110147
2.549868186685998,11.04657695876947
2.569919917540416,11.145207110187055
2.5899716483948345,11.671234584414172
2.610023379249253,11.572604432996588
2.630075110103671,10.323289181707183
2.6501268409580887,10.454796050263964
2.6701785718125075,11.24383726160464
2.6902303026669254,10.98082352449108
2.710282033521344,10.553426201681548
2.7303337643757617,10.29041246456799
2.7503854952301805,10.520549484542354
2.7704372260845984,10.454796050263964
2.7904889569390168,10.323289181707183
2.8105406877934347,11.079453675908665
2.830592418647853,10.750686504516716
2.8506441495022714,10.849316655934302
2.8706958803566893,10.684933070238328
2.8907476112111077,11.473974281579004
2.910799342065526,13.61096089562667
2.9308510729199444,14.49863225838493
2.9509028037743623,15.386303621143192
2.9709545346287807,13.742467764183449
2.991006265483199,14.991783015472853
3.011057996337617,12.032878472945317
3.0311097271920353,11.145207110187055
3.0511614580464532,9.994522010315235
3.071213188900872,10.98082352449108
3.09126491975529,9.863015141758456
3.1113166506097083,10.15890559601121
3.131368381464126,11.934248321527733
3.151420112318545,11.276713978743835
3.171471843172963,11.671234584414172
3.1915235740273813,10.98082352449108
3.2115753048817997,9.96164529317604
3.2316270357362176,11.408220847300614
3.251678766590636,11.30959069588303
3.271730497445054,10.454796050263964
3.2917822282994726,10.816439938795106
3.3118339591538906,9.731508273201676
3.331885690008309,10.684933070238328
3.351937420862727,9.205480798974559
3.3719891517171456,10.35616589884638
3.3920408825715636,9.435617818948923
3.4120926134259815,9.435617818948923
3.4321443442804,10.257535747428795
3.452196075134818,8.679453324747442
3.4722478059892365,10.15890559601121
3.4922995368436545,9.83013842461926
3.512351267698073,9.632878121784092
3.532402998552491,9.698631556062482
3.5524547294069095,10.09315216173282
3.5725064602613275,9.27123423325295
3.5925581911157454,9.632878121784092
3.612609921970164,9.534247970366508
3.632661652824582,9.33698766753134
3.6527133836790004,8.81096019330422
3.6727651145334184,9.89589185889765
3.692816845387837,10.323289181707183
3.712868576242255,10.191782313150405
3.7329203070966734,9.534247970366508
3.7529720379510914,9.731508273201676
3.7730237688055097,9.139727364696169
3.793075499659928,8.778083476165026
3.813127230514346,9.106850647556975
3.833178961368765,8.613699890469052
3.8532306922231827,8.252056001937909
3.873282423077601,9.172604081835365
3.893334153932019,8.515069739051468
3.913385884786438,8.219179284798713
3.9334376156408557,8.449316304773077
3.9534893464952736,8.679453324747442
3.973541077349692,9.073973930417779
3.9935928082041103,8.021918981963545
4.013644539058529,7.9561655476851545
4.033696269912947,8.482193021912272
4.0537480007673645,8.613699890469052
4.073799731621784,7.9561655476851545
4.093851462476201,7.726028527710791
4.11390319333062,8.74520675902583
4.133954924185037,7.9561655476851545
4.154006655039455,8.087672416241935
4.174058385893874,8.679453324747442
4.194110116748292,8.646576607608246
4.2141618476027105,7.627398376293206
4.234213578457128,7.4630147905972315
4.254265309311547,7.364384639179647
4.274317040165966,8.383562870494687
4.294368771020383,7.660275093432401
4.314420501874801,7.758905244849985
4.334472232729219,7.79178196198918
4.354523963583638,7.331507922040452
4.3745756944380565,7.660275093432401
4.394627425292474,8.219179284798713
4.414679156146892,7.232877770622868
4.434730887001312,7.200001053483673
4.454782617855729,8.843836910443416
4.474834348710147,8.843836910443416
4.494886079564566,8.843836910443416
4.514937810418983,8.942467061861
4.5349895412734025,8.120549133381129
4.55504127212782,8.449316304773077
4.575093002982238,8.186302567659519
4.595144733836657,7.594521659154011
4.615196464691075,7.331507922040452
4.635248195545493,7.594521659154011
4.655299926399912,7.134247619205283
4.675351657254329,7.167124336344478
4.695403388108748,7.0027407506485035
4.715455118963166,6.77260373067414
4.735506849817584,7.200001053483673
4.755558580672003,6.345206407864607
4.77561031152642,7.364384639179647
4.795662042380839,6.575343427838971
4.815713773235258,7.364384639179647
4.835765504089675,7.9561655476851545
4.855817234944094,6.673973579256555
4.875868965798511,6.904110599230919
4.89592069665293,6.345206407864607
4.915972427507349,7.364384639179647
4.936024158361766,6.904110599230919
4.9560758892161845,5.917809085055073
4.976127620070604,7.85753539626757
4.996179350925021,7.035617467787699
5.0162310817794395,6.805480447813335
5.036282812633857,6.509589993560581
5.056334543488275,6.673973579256555
5.076386274342695,6.70685029639575
5.096438005197112,5.49041176224554
5.1164897360515305,6.115069387890243
5.136541466905949,7.364384639179647
5.156593197760367,7.430138073458037
5.1766449286147855,6.476713276421386
5.196696659469204,7.0027407506485035
5.216748390323621,6.509589993560581
5.236800121178041,6.936987316370114
5.256851852032458,7.035617467787699
5.276903582886876,6.805480447813335
5.296955313741295,7.85753539626757
5.317007044595712,8.482193021912272
5.3370587754501315,9.402741101809728
5.35711050630455,13.315070441373916
5.377162237158967,15.550687206839166
5.397213968013386,16.569865438154206
5.417265698867803,15.912331095370309
5.437317429722222,15.189043318308022
5.457369160576641,15.123289884029633
5.477420891431058,12.789042967146798
5.497472622285477,10.389042615985574
5.517524353139896,8.153425850520323
5.537576083994313,7.0027407506485035
5.557627814848732,6.378083125003801
5.577679545703149,6.70685029639575
5.597731276557568,6.082192670751048
5.617783007411987,6.345206407864607
5.637834738266404,7.134247619205283
5.657886469120823,6.312329690725412
5.677938199975241,6.115069387890243
5.697989930829659,6.575343427838971
5.718041661684078,6.016439236472658
5.738093392538495,6.70685029639575
5.7581451233929135,6.180822822168633
5.778196854247333,6.378083125003801
5.79824858510175,6.312329690725412
5.818300315956169,7.265754487762063
5.838352046810587,6.575343427838971
5.858403777665004,7.627398376293206
5.878455508519424,8.021918981963545
5.898507239373842,8.186302567659519
5.9185589702282595,8.74520675902583
5.938610701082678,8.317809436216297
5.958662431937096,8.317809436216297
5.978714162791515,8.284932719077103
5.998765893645933,7.364384639179647
6.01881762450035,7.85753539626757
6.038869355354769,6.115069387890243
6.058921086209188,7.758905244849985
6.0789728170636055,7.232877770622868
6.099024547918024,6.739727013534945
6.119076278772441,6.542466710699776
6.139128009626861,6.410959842142996
6.159179740481279,6.904110599230919
6.179231471335696,6.147946105029438
6.199283202190115,6.838357164952529
6.219334933044533,6.147946105029438
6.2393866638989515,7.397261356318842
6.25943839475337,8.547946456190662
6.279490125607787,10.91507009021269
6.299541856462206,13.183563572817137
6.319593587316625,18.83835892075865
6.339645318171042,25.841099671407154
6.359697049025461,29.523291990996977
6.379748779879879,33.238361027726
6.399800510734297,37.0520602158726
6.419852241588716,36.197265570253535
6.439903972443134,31.923292342158202
6.459955703297552,25.315072197180037
6.48000743415197,19.03561922359382
6.500059165006388,13.742467764183449
6.520110895860807,10.2246590302896
6.540162626715225,8.054795699102739
6.5602143575696426,7.693151810571596
6.580266088424061,7.298631204901257
6.60031781927848,7.298631204901257
6.620369550132898,6.575343427838971
6.640421280987316,6.345206407864607
6.6604730118417335,6.180822822168633
6.680524742696153,6.443836559282191
6.700576473550571,6.77260373067414
6.7206282044049885,6.180822822168633
6.740679935259407,7.232877770622868
6.760731666113825,6.443836559282191
6.780783396968244,7.726028527710791
6.800835127822662,7.0027407506485035
6.8208868586770794,6.608220144978166
6.840938589531498,6.542466710699776
6.860990320385917,6.838357164952529
6.8810420512403345,5.983562519333463
6.901093782094753,7.167124336344478
6.921145512949171,7.298631204901257
6.941197243803589,8.186302567659519
6.961248974658008,8.679453324747442
6.981300705512425,9.369864384670533
7.001352436366844,9.534247970366508
7.021404167221262,11.145207110187055
7.0414558980756805,13.117810138538747
7.061507628930099,11.210960544465445
7.081559359784517,11.671234584414172
7.101611090638935,10.15890559601121
7.121662821493353,10.060275444593625
7.141714552347772,8.87671362758261
7.16176628320219,7.9890422648243495
7.181818014056608,7.726028527710791
7.201869744911026,7.430138073458037
7.221921475765445,7.397261356318842
7.241973206619863,6.641096862117361
7.262024937474281,6.904110599230919
7.282076668328699,7.726028527710791
7.302128399183117,6.345206407864607
7.322180130037536,6.936987316370114
7.342231860891954,7.627398376293206
7.362283591746372,7.430138073458037
7.38233532260079,8.186302567659519
7.402387053455209,8.449316304773077
7.422438784309627,8.547946456190662
7.442490515164045,9.89589185889765
7.462542246018463,11.04657695876947
7.482593976872881,9.435617818948923
7.5026457077273,9.501371253227314
7.522697438581718,10.02739872745443
7.542749169436136,9.632878121784092
7.562800900290554,8.646576607608246
7.582852631144973,8.120549133381129
7.602904361999391,7.561644942014817
7.622956092853809,7.9561655476851545
7.643007823708227,8.317809436216297
7.663059554562645,8.778083476165026
7.6831112854170645,8.120549133381129
7.703163016271482,8.186302567659519
7.7232147471259,7.9232888305459594
7.743266477980318,7.693151810571596
7.763318208834737,8.186302567659519
7.783369939689155,8.087672416241935
7.803421670543573,8.81096019330422
7.823473401397991,8.416439587633883
7.84352513225241,8.252056001937909
7.863576863106828,8.120549133381129
7.883628593961246,9.106850647556975
7.903680324815664,10.520549484542354
7.923732055670082,9.89589185889765
7.943783786524501,8.679453324747442
7.963835517378919,12.065755190084511
7.983887248233337,12.493152512894044
8.003938979087756,12.131508624362901
8.023990709942174,13.117810138538747
8.044042440796591,12.032878472945317
8.064094171651009,13.084933421399551
8.084145902505428,13.019179987121163
8.104197633359847,13.249317007095526
8.124249364214265,11.408220847300614
8.144301095068682,11.44109756443981
8.164352825923102,9.33698766753134
8.184404556777519,10.750686504516716
8.204456287631938,8.843836910443416
8.224508018486356,9.600001404644898
8.244559749340775,9.797261707480066
8.264611480195192,10.553426201681548
8.28466321104961,11.30959069588303
8.30471494190403,10.15890559601121
8.324766672758447,10.520549484542354
8.344818403612866,10.553426201681548
8.364870134467283,9.863015141758456
8.3849218653217,10.750686504516716
8.40497359617612,10.42191933312477
8.425025327030538,11.473974281579004
8.445077057884957,10.684933070238328
8.465128788739376,10.35616589884638
8.485180519593792,11.342467413022225
8.505232250448211,11.638357867274978
8.52528398130263,12.854796401425189
8.545335712157048,12.591782664311628
8.565387443011467,11.671234584414172
8.585439173865883,12.986303269981967
8.605490904720302,13.34794715851311
8.625542635574721,13.150686855677941
8.645594366429139,13.775344481322644
8.665646097283558,15.156166601168827
8.685697828137974,13.775344481322644
8.705749558992393,13.873974632740229
8.725801289846812,13.47945402706989
8.74585302070123,13.446577309930696
8.765904751555649,15.78082422681353
8.785956482410068,14.597262409802514
8.806008213264484,14.827399429776879
8.826059944118903,16.53698872101501
8.84611167497332,15.353426904003996
8.86616340582774,16.076714681066285
8.886215136682159,16.076714681066285
8.906266867536575,17.293153215216492
8.926318598390994,15.978084529648699
8.946370329245411,17.161646346659715
8.96642206009983,17.293153215216492
8.98647379095425,16.964386043824543
9.006525521808667,17.81918068944361
9.026577252663085,16.241098266762258
9.046628983517502,17.030139478102935
9.066680714371921,18.378084880809922
9.08673244522634,19.10137265787221
9.106784176080758,18.01644099227878
9.126835906935176,20.87671538338873
9.146887637789593,18.115071143696365
9.166939368644012,22.29041422037411
9.186991099498432,19.364386394985768
9.207042830352849,20.71233179769276
9.227094561207267,22.652058108905255
9.247146292061686,24.098633663029826
9.267198022916103,26.235620277077494
9.287249753770523,28.63562062823872
9.30730148462494,34.126032390484255
9.32735321547936,42.31233495814378
9.347404946333777,50.4657608086641
9.367456677188194,63.97809155287319
9.387508408042613,75.87946315726172
9.407560138897031,91.62741066693606
9.42761186975145,97.61097318626952
9.447663600605868,110.13700241630276
9.467715331460285,112.30686574748962
9.487767062314704,105.33700171398031
9.507818793169124,93.73152056384453
9.527870524023541,82.55343673651828
9.547922254877959,67.43014685248865
9.567973985732376,55.06850120815138
9.588025716586795,45.20548606639292
9.608077447441215,37.41370410440374
9.628129178295632,29.358908405301005
9.648180909150051,27.386305376949313
9.668232640004467,25.24931876290165
9.688284370858886,23.408222603106736
9.708336101713305,21.00822225194551
9.728387832567723,19.49589326354255
9.748439563422142,19.98904402063047
9.768491294276558,18.180824577974754
9.788543025130977,17.62192038660844
9.808594755985396,18.772605486480263
9.828646486839814,17.358906649494884
9.848698217694233,16.832879175267767
9.868749948548652,17.161646346659715
9.888801679403068,18.180824577974754
9.908853410257487,17.326029932355688
9.928905141111905,18.378084880809922
9.948956871966324,19.693153566377717
9.969008602820743,19.03561922359382
9.989060333675159,19.7917837177953
10.009112064529578,20.84383866624954
10.029163795383996,21.994523766121358
10.049215526238415,22.783564977462035
10.069267257092834,23.178085583132372
10.08931898794725,25.315072197180037
10.109370718801669,26.33425042849508
10.129422449656087,26.69589431702622
10.149474180510506,26.367127145634274
10.169525911364925,28.569867193960327
10.189577642219342,29.852059162388926
10.20962937307376,30.706853808007992
10.22968110392818,32.5808266849421
10.249732834782597,34.81644345040735
10.269784565637016,35.27671749035608
10.289836296491433,38.23562203288361
10.30988802734585,39.550690718451406
10.32993975820027,43.10137616948445
10.349991489054688,44.252061269356275
10.370043219909107,44.350691420773856
10.390094950763524,48.98630853740033
10.410146681617944,54.54247373392426
10.430198412472361,56.51507676227595
10.450250143326778,61.413707616015984
10.470301874181198,60.098638930448196
10.490353605035615,65.49042054127615
10.510405335890034,68.77809225519563
10.530457066744452,77.81918946847422
10.55050879759887,86.49864279322166
10.570560528453289,90.7397393041778
10.590612259307708,94.19179460379326
10.610663990162125,103.85754944271655
10.630715721016543,112.53700276746399
10.65076745187096,127.43015563151926
10.67081918272538,136.0767322391275
10.690870913579799,146.49865157225227
10.710922644434216,161.35892771916835
10.730974375288636,175.0356420490734
10.751026106143051,190.81646627588694
10.77107783699747,200.31783752911426
10.79112956785189,219.1233197327337
10.811181298706307,239.30962405619934
10.831233029560726,257.58907878559165
10.851284760415142,281.1288082572552
10.871336491269561,308.5151136342045
10.89138822212398,354.21375045768536
10.911439952978398,418.4219790305329
10.931491683832817,527.3754196298247
10.951543414687237,767.6055917659214
10.971595145541652,1201.7097648718502
10.991646876396072,2087.770168490291
11.011698607250489,3684.592319940985
