Energy (keV),Intensity (cps),slope,offset,liveTime
-0.016753362679535415,0.0,20.051730854418228,-16.753362679535414,32.072044372558594
0.003298368174882814,0.0
0.023350099029301043,0.0
0.043401829883719274,0.0
0.0634535607381375,0.0
0.08350529159255572,0.0
0.10355702244697396,0.0
0.12360875330139219,0.0
0.14366048415581043,0.0
0.16371221501022865,0.0
0.18376394586464687,0.0
0.2038156767190651,0.0
0.2238674075734833,0.0
0.24391913842790156,0.0
0.2639708692823198,0.0
0.28402260013673797,0.0
0.3040743309911562,0.0
0.32412606184557446,0.0
0.34417779269999266,0.0
0.3642295235544109,0.0
0.3842812544088291,0.0
0.40433298526324735,0.0
0.42438471611766554,0.0
0.4444364469720838,0.031179802209790455
0.4644881778265021,0.031179802209790455
0.4845399086809203,0.342977824307695
0.5045916395353385,0.8106748574545518
0.5246433703897568,1.7460689237482656
0.544695101244175,4.022194485062969
0.5647468320985932,6.017701826489558
0.5847985629530115,9.54101947619588
0.6048502938074297,13.407314950209896
0.624902024661848,19.17557835902113
0.6449537555162661,25.473898405398803
0.6650054863706844,29.994969725818418
0.6850572172251026,32.458174100391865
0.7051089480795208,34.734299661706565
0.725160678933939,36.636267596503785
0.7452124097883572,38.69413454234996
0.7652641406427755,37.10396462965064
0.7853158714971937,36.41800898103525
0.805367602351612,36.79216660755274
0.8254193332060301,34.98373807938489
0.8454710640604484,34.2977824307695
0.8655227949148666,29.153115066154076
0.8855745257692849,28.966036252895332
0.9056262566237031,27.750023966713506
0.9256779874781212,26.440472273902305
0.9457297183325396,24.226706317007185
0.9657814491869579,22.48063739325892
0.9858331800413761,21.732322140223946
1.0058849108957943,21.32698471149667
1.0259366417502125,18.926139941342807
1.0459883726046306,18.021925677258885
1.0660401034590488,16.494115368979152
1.086091834313467,16.774733588867264
1.1061435651678853,15.246923280587533
1.1261952960223034,13.968551389986125
1.1462470268767218,14.436248423132982
1.16629875773114,13.251415939160944
1.1863504885855582,13.59439376346864
1.2064022194399764,12.471920883916182
1.2264539502943947,12.160122861818278
1.2465056811488127,12.752539103804297
1.266557412003231,11.068829784475612
1.2866091428576494,10.133435718181898
1.3066608737120675,10.445233740279802
1.3267126045664859,9.291581058517556
1.346764335420904,10.22697512481127
1.3668160662753224,10.97529037784624
1.3868677971297405,11.505347015412678
1.4069195279841589,10.507593344699384
1.4269712588385768,14.311529214293818
1.4470229896929951,17.80366706179035
1.4670747205474133,20.828107876140024
1.4871264514018316,23.82136888827991
1.5071781822562498,20.391590645202957
1.5272299131106681,15.932878929202923
1.5472816439650863,13.59439376346864
1.5673333748195046,12.908438114853249
1.5873851056739228,11.411807608783306
1.6074368365283411,14.997484862909209
1.627488567382759,23.790189086070118
1.6475402982371774,38.5694153335108
1.6675920290915955,58.77392716545501
1.687643759946014,74.98742431454605
1.707695490800432,85.08968023051816
1.7277472216548504,87.30344618741327
1.7477989525092685,76.67113363387473
1.767850683363687,64.85398859636415
1.787902414218105,47.89217619423814
1.8079541450725232,33.674186386573695
1.8280058759269413,26.315753065063145
1.8480576067813597,21.17108570044772
1.8681093376357778,17.80366706179035
1.8881610684901962,16.743553786657476
1.9082127993446145,14.685686840811305
1.9282645301990327,14.249169609874238
1.948316261053451,14.997484862909209
1.9683679919078692,14.311529214293818
1.9884197227622873,14.748046445230885
2.0084714536167056,13.59439376346864
2.028523184471124,14.3738888187134
2.0485749153255424,14.935125258489629
2.0686266461799607,14.124450401035077
2.0886783770343786,13.251415939160944
2.1087301078887966,15.12220407174837
2.1287818387432154,13.968551389986125
2.1488335695976333,14.217989807664448
2.1688853004520516,14.093270598825287
2.1889370313064695,13.189056334741363
2.2089887621608884,13.68793317009801
2.2290404930153063,13.937371587776333
2.2490922238697246,15.71462031373439
2.2691439547241425,15.932878929202923
2.289195685578561,15.839339522573551
2.3092474164329793,15.527541500475648
2.329299147287397,15.278103082797324
2.3493508781418155,15.65226070931481
2.369402608996234,14.529787829762352
2.3894543398506523,14.560967631972144
2.40950607070507,15.589901104895228
2.4295578015594885,15.215743478377743
2.449609532413907,14.124450401035077
2.469661263268325,12.440741081706392
2.489712994122743,12.596640092755344
2.509764724977161,13.313775543580524
2.52981645583158,12.846078510433667
2.549868186685998,12.658999697174925
2.569919917540416,12.970797719272829
2.5899716483948345,12.846078510433667
2.610023379249253,13.09551692811199
2.630075110103671,13.344955345790314
2.6501268409580887,13.157876532531573
2.6701785718125075,13.313775543580524
2.6902303026669254,13.563213961258848
2.710282033521344,12.783718906014087
2.7303337643757617,13.157876532531573
2.7503854952301805,13.812652378937171
2.7704372260845984,11.754785433091001
2.7904889569390168,13.532034159049058
2.8105406877934347,13.313775543580524
2.830592418647853,12.783718906014087
2.8506441495022714,12.690179499384715
2.8706958803566893,12.471920883916182
2.8907476112111077,13.968551389986125
2.910799342065526,15.246923280587533
2.9308510729199444,16.46293556676936
2.9509028037743623,16.119957742461665
2.9709545346287807,16.119957742461665
2.991006265483199,14.030910994405705
3.011057996337617,15.028664665118999
3.0311097271920353,12.814898708223877
3.0511614580464532,13.376135148000106
3.071213188900872,12.066583455188907
3.09126491975529,11.287088399944144
3.1113166506097083,12.690179499384715
3.131368381464126,12.752539103804297
3.151420112318545,11.193548993314774
3.171471843172963,12.565460290545554
3.1915235740273813,11.723605630881211
3.2115753048817997,12.596640092755344
3.2316270357362176,11.162369191104982
3.251678766590636,12.658999697174925
3.271730497445054,12.783718906014087
3.2917822282994726,12.066583455188907
3.3118339591538906,11.848324839720373
3.331885690008309,10.94411057563645
3.351937420862727,13.09551692811199
3.3719891517171456,11.910684444139955
3.3920408825715636,11.411807608783306
3.4120926134259815,11.100009586685402
3.4321443442804,11.255908597734354
3.452196075134818,11.63006622425184
3.4722478059892365,12.28484207065744
3.4922995368436545,12.253662268447648
3.512351267698073,11.53652681762247
3.532402998552491,10.819391366797289
3.5524547294069095,10.601132751328755
3.5725064602613275,11.661246026461631
3.5925581911157454,10.601132751328755
3.612609921970164,11.692425828671421
3.632661652824582,11.00647018005603
3.6527133836790004,10.071076113762317
3.6727651145334184,11.224728795524564
3.692816845387837,9.198041651888184
3.712868576242255,9.946356904923155
3.7329203070966734,11.100009586685402
3.7529720379510914,10.881750971216869
3.7730237688055097,10.351694333650432
3.793075499659928,10.164615520391688
3.813127230514346,9.416300267356718
3.833178961368765,10.039896311552527
3.8532306922231827,9.977536707132947
3.873282423077601,9.790457893874203
3.893334153932019,9.50983967398609
3.913385884786438,10.008716509342737
3.9334376156408557,8.97978303641965
3.9534893464952736,8.356186992223842
3.973541077349692,9.385120465146928
3.9935928082041103,8.761524420951119
4.013644539058529,9.478659871776298
4.033696269912947,8.543265805482585
4.0537480007673645,8.387366794433632
4.073799731621784,9.166861849678394
4.093851462476201,8.88624362979028
4.11390319333062,7.701411145818243
4.133954924185037,8.137928376755308
4.154006655039455,8.075568772335728
4.174058385893874,8.137928376755308
4.194110116748292,8.512086003272794
4.2141618476027105,7.794950552447614
4.234213578457128,7.5143323325594995
4.254265309311547,7.264893914881176
4.274317040165966,7.451972728139919
4.294368771020383,7.4831525303497095
4.314420501874801,7.607871739188871
4.334472232729219,6.672477672895157
4.354523963583638,6.4853988596364145
4.3745756944380565,8.26264758559447
4.394627425292474,7.5143323325594995
4.414679156146892,7.794950552447614
4.434730887001312,8.94860323420986
4.454782617855729,8.761524420951119
4.474834348710147,9.478659871776298
4.494886079564566,8.418546596643424
4.514937810418983,8.356186992223842
4.5349895412734025,8.94860323420986
4.55504127212782,8.512086003272794
4.575093002982238,8.044388970125938
4.595144733836657,7.327253519300757
4.615196464691075,6.859556486153901
4.635248195545493,6.859556486153901
4.655299926399912,6.921916090573482
4.675351657254329,5.8929826176503965
4.695403388108748,6.235960441958091
4.715455118963166,6.672477672895157
4.735506849817584,6.734837277314739
4.755558580672003,5.955342222069977
4.77561031152642,7.077815101622433
4.795662042380839,6.14242103532872
4.815713773235258,6.267140244167882
4.835765504089675,6.516578661846205
4.855817234944094,5.799443211021025
4.875868965798511,6.14242103532872
4.89592069665293,6.953095892783272
4.915972427507349,6.82837668394411
4.936024158361766,6.17360083753851
4.9560758892161845,6.080061430909139
4.976127620070604,6.578938266265786
4.996179350925021,5.768263408811235
5.0162310817794395,6.890736288363691
5.036282812633857,5.799443211021025
5.056334543488275,5.799443211021025
5.076386274342695,5.799443211021025
5.096438005197112,5.986522024279767
5.1164897360515305,6.017701826489558
5.136541466905949,5.643544199972072
5.156593197760367,5.674724002181863
5.1766449286147855,6.890736288363691
5.196696659469204,5.8929826176503965
5.216748390323621,5.550004793342701
5.236800121178041,6.547758464055995
5.256851852032458,5.737083606601444
5.276903582886876,6.734837277314739
5.296955313741295,6.703657475104948
5.317007044595712,7.015455497202852
5.3370587754501315,8.94860323420986
5.35711050630455,10.445233740279802
5.377162237158967,11.224728795524564
5.397213968013386,13.532034159049058
5.417265698867803,13.313775543580524
5.437317429722222,12.970797719272829
5.457369160576641,11.411807608783306
5.477420891431058,9.291581058517556
5.497472622285477,8.075568772335728
5.517524353139896,7.077815101622433
5.537576083994313,7.296073717090967
5.557627814848732,5.799443211021025
5.577679545703149,5.737083606601444
5.597731276557568,5.4252855845035395
5.617783007411987,5.48764518892312
5.637834738266404,5.4252855845035395
5.657886469120823,5.082307760195844
5.677938199975241,5.581184595552491
5.697989930829659,6.048881628699348
5.718041661684078,6.048881628699348
5.738093392538495,5.269386573454587
5.7581451233929135,5.9241624198601865
5.778196854247333,6.017701826489558
5.79824858510175,5.9241624198601865
5.818300315956169,5.861802815440606
5.838352046810587,6.17360083753851
5.858403777665004,6.703657475104948
5.878455508519424,7.358433321510548
5.898507239373842,6.79719688173432
5.9185589702282595,6.734837277314739
5.938610701082678,7.015455497202852
5.958662431937096,6.423039255216834
5.978714162791515,6.703657475104948
5.998765893645933,6.111241233118929
6.01881762450035,5.48764518892312
6.038869355354769,5.300566375664378
6.058921086209188,5.674724002181863
6.0789728170636055,4.988768353566473
6.099024547918024,5.269386573454587
6.119076278772441,5.581184595552491
6.139128009626861,4.988768353566473
6.159179740481279,5.8929826176503965
6.179231471335696,4.988768353566473
6.199283202190115,5.955342222069977
6.219334933044533,6.14242103532872
6.2393866638989515,5.768263408811235
6.25943839475337,6.641297870685367
6.279490125607787,7.919669761286776
6.299541856462206,10.133435718181898
6.319593587316625,14.3738888187134
6.339645318171042,17.523048841902238
6.359697049025461,21.514063524755414
6.379748779879879,23.97726789932886
6.399800510734297,26.253393460643565
6.419852241588716,24.03962750374844
6.439903972443134,22.48063739325892
6.459955703297552,17.180071017594543
6.48000743415197,12.066583455188907
6.500059165006388,11.349448004363726
6.520110895860807,8.699164816531537
6.540162626715225,6.859556486153901
6.5602143575696426,5.674724002181863
6.580266088424061,5.207026969035006
6.60031781927848,5.955342222069977
6.620369550132898,5.175847166825216
6.640421280987316,5.9241624198601865
6.6604730118417335,5.051127957986054
6.680524742696153,5.238206771244797
6.700576473550571,5.861802815440606
6.7206282044049885,5.581184595552491
6.740679935259407,5.799443211021025
6.760731666113825,6.267140244167882
6.780783396968244,5.300566375664378
6.800835127822662,5.300566375664378
6.8208868586770794,5.674724002181863
6.840938589531498,5.550004793342701
6.860990320385917,5.550004793342701
6.8810420512403345,5.4252855845035395
6.901093782094753,6.267140244167882
6.921145512949171,7.015455497202852
6.941197243803589,5.986522024279767
6.961248974658008,6.17360083753851
6.981300705512425,6.703657475104948
7.001352436366844,8.88624362979028
7.021404167221262,8.356186992223842
7.0414558980756805,7.701411145818243
7.061507628930099,8.325007190014052
7.081559359784517,8.418546596643424
7.101611090638935,7.826130354657405
7.121662821493353,7.233714112671386
7.141714552347772,6.953095892783272
7.16176628320219,5.9241624198601865
7.181818014056608,5.986522024279767
7.201869744911026,5.830623013230816
7.221921475765445,5.300566375664378
7.241973206619863,6.14242103532872
7.262024937474281,5.737083606601444
7.282076668328699,4.708150133678359
7.302128399183117,4.458711716000035
7.322180130037536,5.4252855845035395
7.342231860891954,5.48764518892312
7.362283591746372,5.362925980083959
7.38233532260079,6.578938266265786
7.402387053455209,6.547758464055995
7.422438784309627,7.233714112671386
7.442490515164045,7.794950552447614
7.462542246018463,7.171354508251805
7.482593976872881,7.296073717090967
7.5026457077273,8.387366794433632
7.522697438581718,7.451972728139919
7.542749169436136,7.296073717090967
7.562800900290554,6.4853988596364145
7.582852631144973,5.768263408811235
7.602904361999391,6.080061430909139
7.622956092853809,6.111241233118929
7.643007823708227,6.204780639748301
7.663059554562645,5.051127957986054
7.6831112854170645,5.799443211021025
7.703163016271482,6.267140244167882
7.7232147471259,6.267140244167882
7.743266477980318,5.674724002181863
7.763318208834737,5.175847166825216
7.783369939689155,5.986522024279767
7.803421670543573,5.9241624198601865
7.823473401397991,6.391859453007044
7.84352513225241,6.641297870685367
7.863576863106828,5.705903804391653
7.883628593961246,5.830623013230816
7.903680324815664,6.9842756949930624
7.923732055670082,6.610118068475576
7.943783786524501,6.641297870685367
7.963835517378919,8.23146778338468
7.983887248233337,9.790457893874203
8.003938979087756,9.665738685035041
8.023990709942174,10.133435718181898
8.044042440796591,10.445233740279802
8.064094171651009,10.164615520391688
8.084145902505428,10.102255915972108
8.104197633359847,8.855063827580489
8.124249364214265,7.639051541398662
8.144301095068682,7.358433321510548
8.164352825923102,7.015455497202852
8.184404556777519,6.859556486153901
8.204456287631938,5.9241624198601865
8.224508018486356,6.298320046377672
8.244559749340775,6.82837668394411
8.264611480195192,7.171354508251805
8.28466321104961,5.643544199972072
8.30471494190403,6.017701826489558
8.324766672758447,6.610118068475576
8.344818403612866,7.389613123720338
8.364870134467283,5.986522024279767
8.3849218653217,5.9241624198601865
8.40497359617612,6.204780639748301
8.425025327030538,6.766017079524529
8.445077057884957,5.768263408811235
8.465128788739376,6.79719688173432
8.485180519593792,6.578938266265786
8.505232250448211,5.955342222069977
8.52528398130263,6.672477672895157
8.545335712157048,5.8929826176503965
8.565387443011467,6.82837668394411
8.585439173865883,7.389613123720338
8.605490904720302,6.4542190574266245
8.625542635574721,6.890736288363691
8.645594366429139,7.077815101622433
8.665646097283558,6.766017079524529
8.685697828137974,7.108994903832224
8.705749558992393,6.547758464055995
8.725801289846812,6.79719688173432
8.74585302070123,6.890736288363691
8.765904751555649,6.953095892783272
8.785956482410068,6.9842756949930624
8.806008213264484,7.233714112671386
8.826059944118903,6.921916090573482
8.84611167497332,7.701411145818243
8.86616340582774,6.235960441958091
8.886215136682159,8.823884025370699
8.906266867536575,7.670231343608452
8.926318598390994,8.325007190014052
8.946370329245411,8.106748574545518
8.96642206009983,7.046635299412643
8.98647379095425,7.420792925930129
9.006525521808667,7.233714112671386
9.026577252663085,7.264893914881176
9.046628983517502,7.607871739188871
9.066680714371921,6.080061430909139
9.08673244522634,6.766017079524529
9.106784176080758,7.5143323325594995
9.126835906935176,7.607871739188871
9.146887637789593,7.639051541398662
9.166939368644012,7.327253519300757
9.186991099498432,8.075568772335728
9.207042830352849,7.108994903832224
9.227094561207267,6.610118068475576
9.247146292061686,8.636805212111957
9.267198022916103,8.013209167916147
9.287249753770523,7.670231343608452
9.30730148462494,7.888489959076986
9.32735321547936,7.046635299412643
9.347404946333777,7.358433321510548
9.367456677188194,8.013209167916147
9.387508408042613,7.233714112671386
9.407560138897031,8.106748574545518
9.42761186975145,7.046635299412643
9.447663600605868,7.919669761286776
9.467715331460285,8.044388970125938
9.487767062314704,7.389613123720338
9.507818793169124,8.23146778338468
9.527870524023541,8.106748574545518
9.547922254877959,7.701411145818243
9.567973985732376,9.166861849678394
9.588025716586795,7.607871739188871
9.608077447441215,8.356186992223842
9.628129178295632,8.1691081789651
9.648180909150051,10.601132751328755
9.668232640004467,9.353940662937136
9.688284370858886,9.166861849678394
9.708336101713305,10.476413542489594
9.728387832567723,10.757031762377707
9.748439563422142,9.759278091664413
9.768491294276558,9.603379080615461
9.788543025130977,8.512086003272794
9.808594755985396,9.229221454097974
9.828646486839814,9.198041651888184
9.848698217694233,8.356186992223842
9.868749948548652,9.478659871776298
9.888801679403068,8.636805212111957
9.908853410257487,10.445233740279802
9.928905141111905,8.94860323420986
9.948956871966324,9.073322443049022
9.969008602820743,8.761524420951119
9.989060333675159,9.665738685035041
10.009112064529578,9.728098289454623
10.029163795383996,9.634558882825251
10.049215526238415,9.821637696083993
10.069267257092834,9.229221454097974
10.08931898794725,9.57219927840567
10.109370718801669,9.696918487244831
10.129422449656087,9.385120465146928
10.149474180510506,11.00647018005603
10.169525911364925,11.723605630881211
10.189577642219342,10.25815492702106
10.20962937307376,10.351694333650432
10.22968110392818,11.59888642204205
10.249732834782597,12.34720167507702
10.269784565637016,12.471920883916182
10.289836296491433,11.068829784475612
10.30988802734585,10.725851960167917
10.32993975820027,10.912930773426659
10.349991489054688,11.879504641930163
10.370043219909107,10.819391366797289
10.390094950763524,11.03764998226582
10.410146681617944,12.471920883916182
10.430198412472361,11.474167213202888
10.450250143326778,12.440741081706392
10.470301874181198,12.534280488335764
10.490353605035615,12.128943059608487
10.510405335890034,14.030910994405705
10.530457066744452,12.503100686125974
10.55050879759887,13.376135148000106
10.570560528453289,13.500854356839268
10.590612259307708,13.532034159049058
10.610663990162125,13.750292774517591
10.630715721016543,14.498608027552562
10.65076745187096,14.186810005454657
10.67081918272538,12.877258312643459
10.690870913579799,14.3738888187134
10.710922644434216,14.810406049650467
10.730974375288636,15.839339522573551
10.751026106143051,16.026418335832293
10.77107783699747,15.184563676167953
10.79112956785189,14.903945456279837
10.811181298706307,15.964058731412713
10.831233029560726,15.964058731412713
10.851284760415142,17.21125081980433
10.871336491269561,15.527541500475648
10.89138822212398,17.05535180875538
10.911439952978398,18.115465083888253
10.931491683832817,17.710127655160978
10.951543414687237,18.115465083888253
10.971595145541652,17.990745875049093
10.991646876396072,17.80366706179035
11.011698607250489,18.614341919244904
