Energy (keV),Intensity (cps),slope,offset,liveTime
-0.017217458956643884,0.0,20.05594293969134,-17.217458956643885,51.260704040527344
0.002838483983047457,0.0
0.022894426922738798,0.0
0.042950369862430136,0.0
0.06300631280212149,0.0
0.08306225574181282,0.0
0.10311819868150417,0.0
0.12317414162119551,0.0
0.14323008456088684,0.0
0.16328602750057816,0.0
0.1833419704402695,0.0
0.20339791337996088,0.0
0.2234538563196522,0.0
0.24350979925934355,0.0
0.2635657421990349,0.0
0.2836216851387262,0.0
0.3036776280784176,0.0
0.32373357101810896,0.0
0.3437895139578002,0.0
0.3638454568974916,0.0
0.3839013998371829,0.0
0.4039573427768743,0.0
0.42401328571656566,0.019508120668990183
0.4440692286562569,0.019508120668990183
0.4641251715959483,0.058524362006970546
0.48418111453563967,0.11704872401394109
0.504237057475331,0.40967053404879383
0.5242930004150224,0.7022923440836465
0.5443489433547137,1.1119628781324404
0.5644048862944051,2.048352670243969
0.5844608292340963,3.0627749450314585
0.6045167721737876,4.896538287916536
0.624572715113479,6.964399078829495
0.6446286580531704,9.890617179178022
0.6646846009928618,11.334218108683295
0.684740543932553,14.592074260404656
0.7047964868722444,16.874524378676508
0.7248524298119358,18.37664967018875
0.7449083727516271,20.34696985775676
0.7649643156913185,21.81007890793102
0.7850202586310097,24.248593991554795
0.805076201570701,23.897447819512973
0.8251321445103924,25.165475662997334
0.8451880874500838,24.81432949095551
0.8652440303897752,26.082357334439873
0.8852999733294665,28.033169401338892
0.9053559162691578,26.667600954509577
0.9254118592088492,26.609076592502607
0.9454678021485405,26.199406058453814
0.9655237450882319,26.511535989157657
0.9855796880279232,26.80415779919251
1.0056356309676144,25.692194921060068
1.0256915739073058,26.453011627150687
1.0457475168469974,27.03825524722039
1.0658034597866886,26.68710907517857
1.0858594027263797,26.570060351164628
1.1059153456660713,27.09677960922736
1.1259712886057625,26.413995385812708
1.146027231545454,27.077271488558374
1.1660831744851452,24.73629700827955
1.1861391174248366,25.575146197046127
1.206195060364528,24.97039445630743
1.2262510033042193,24.85334573229349
1.2463069462439107,25.55563807637714
1.266362889183602,25.55563807637714
1.2864188321232932,25.321540628349258
1.3064747750629846,25.341048749018245
1.326530718002676,23.916955940181964
1.3465866609423673,25.184983783666326
1.3666426038820587,23.097614872084375
1.3866985468217499,24.287610232892778
1.4067544897614415,24.67777264627258
1.4268104327011326,26.316454782467755
1.4468663756408242,26.062849213770882
1.4669223185805154,27.311368936586256
1.4869782615202065,27.116287729896353
1.507034204459898,27.330877057255243
1.5270901473995893,25.184983783666326
1.5471460903392809,24.190069629547825
1.567202033278972,23.039090510077404
1.5872579762186634,23.52679352680216
1.6073139191583548,22.414830648669717
1.6273698620980461,22.43433876933871
1.6474258050377375,23.31220419944327
1.6674817479774289,24.40465895690672
1.6875376909171202,27.174812091903323
1.7075936338568114,30.764306294997517
1.7276495767965028,34.47084922210565
1.7477055197361941,32.50052903453764
1.7677614626758855,30.0034895889069
1.787817405615577,26.550552230495637
1.8078733485552683,25.71170304172906
1.8279292914949594,23.936464060850952
1.847985234434651,23.994988422857922
1.8680411773743422,23.87793969884398
1.8880971203140335,26.58956847183362
1.908153063253725,26.74563343718554
1.928209006193416,27.018747126551403
1.9482649491331077,28.501364297394655
1.9683208920727988,26.84317404053049
1.9883768350124904,24.75580512894854
2.008432777952182,23.60482600947812
2.0284887208918727,23.46826916479519
2.0485446638315645,22.980566148070434
2.0686006067712555,22.063684476627895
2.088656549710947,22.72696057937356
2.1087124926506386,22.024668235289916
2.1287684355903296,23.292696078774277
2.148824378530021,22.57089561402164
2.1688803214697123,21.47844085655819
2.1889362644094037,20.60057542645363
2.208992207349095,21.556473339234152
2.2290481502887864,22.57089561402164
2.249104093228478,22.063684476627895
2.269160036168169,22.4538468900077
2.28921597910786,23.507285406133168
2.309271922047552,21.380900253213238
2.3293278649872433,21.57598145990314
2.3493838079269342,21.771062666593043
2.3694397508666256,21.790570787262034
2.389495693806317,21.771062666593043
2.409551636746009,20.42500234043272
2.4296075796856997,20.42500234043272
2.449663522625391,19.527628789659172
2.4697194655650825,18.942385169589468
2.4897754085047734,19.2740232209623
2.5098313514444652,18.610747118216633
2.5298872943841566,20.034839927052918
2.549943237323848,19.29353134163129
2.569999180263539,18.396157790857742
2.5900551232032303,19.50812066899018
2.610111066142922,19.39107194497624
2.6301670090826135,19.039925772934417
2.6502229520223044,18.981401410927447
2.6702788949619958,19.23500697962432
2.690334837901687,19.25451510029331
2.7103907808413785,18.805828324906535
2.73044672378107,19.31303946230028
2.7505026667207613,20.678607909129592
2.7705586096604526,18.454682152864713
2.7906145526001436,19.68369375501109
2.8106704955398354,17.791406050119047
2.8307264384795268,18.37664967018875
2.850782381419218,18.922877048920476
2.870838324358909,18.22058470483683
2.8908942672986004,18.747303962899565
2.9109502102382923,20.639591667791613
2.931006153177983,22.024668235289916
2.9510620961176746,22.55138749335265
2.971118039057366,21.75155454592405
2.9911739819970573,21.75155454592405
3.0112299249367487,18.805828324906535
3.03128586787644,18.493698394202692
3.0513418108161314,16.737967533993576
3.0713977537558224,17.26468679205631
3.0914536966955137,16.484361965296703
3.1115096396352055,15.918626465895988
3.131565582574897,17.245178671387322
3.151621525514588,16.562394447972665
3.1716774684542792,17.18665430938035
3.1917334113939706,16.874524378676508
3.2117893543336624,18.630255238885624
3.2318452972733533,16.19174015526185
3.2519012402130447,17.22567055071833
3.271957183152736,18.747303962899565
3.2920131260924275,19.937299323707965
3.312069069032119,20.776148512474542
3.33212501197181,19.56664503099715
3.3521809549115016,17.947471015470967
3.3722368978511925,16.503870085965694
3.3922928407908843,15.821085862551037
3.4123487837305757,15.430923449171233
3.432404726670267,15.626004655861136
3.452460669609958,14.826171708432538
3.4725166125496494,15.00174479445345
3.492572555489341,14.143387485017882
3.512628498429032,15.899118345226999
3.5326844413687235,17.596324843429144
3.552740384308415,23.234171716767307
3.5727963272481063,37.18247799509528
3.5928522701877976,69.89759635699183
3.612908213127489,135.9130767008546
3.6329641560671804,233.33663132179157
3.6530200990068717,346.6007799259486
3.6730760419465627,435.7333832625647
3.6931319848862545,476.97355035680994
3.713187927825946,427.65702130560277
3.733243870765637,324.34201424263074
3.753299813705328,210.90229255245285
3.7733557566450195,118.72642239147424
3.7934116995847114,61.0018933319323
3.8134676425244023,30.686273812321556
3.8335235854640937,19.586153151666142
3.853579528403785,16.269772637937812
3.873635471343476,16.503870085965694
3.893691414283168,18.922877048920476
3.913747357222859,23.76089097483004
3.9338033001625505,34.47084922210565
3.9538592431022415,47.71686315634999
3.973915186041933,65.89843161984884
3.9939711289816247,80.39296527690854
4.014027071921316,83.18262653257413
4.034083014861007,77.27166596987011
4.054138957800698,64.7669606210474
4.074194900740389,47.853420001032916
4.094250843680081,32.734626482565524
4.114306786619773,21.107786563847377
4.134362729559464,14.182403726355862
4.154418672499155,11.68536428072512
4.174474615438847,11.548807436042187
4.1945305583785375,11.76339676340108
4.214586501318229,10.748974488613591
4.234642444257921,9.910125299847012
4.254698387197612,10.300287713226815
4.274754330137304,10.748974488613591
4.294810273076994,10.885531333296521
4.314866216016686,10.163730868543885
4.334922158956378,10.241763351219845
4.3549781018960685,11.587823677380168
4.37503404483576,16.99157310269045
4.395089987775451,28.169726246021824
4.415145930715143,48.24358241441272
4.435201873654834,80.90017641430228
4.455257816594525,131.01653841293805
4.475313759534217,177.52389808781066
4.495369702473908,208.11263129678727
4.5154256454135995,212.54097468864802
4.535481588353291,188.29238069709322
4.555537531292982,151.24645954668088
4.575593474232673,105.1097541645191
4.595649417172364,72.7262738539954
4.615705360112056,50.838162463388414
4.635761303051748,38.84066825195945
4.655817245991439,35.758385186259005
4.6758731889311305,30.0034895889069
4.695929131870821,24.34613459489975
4.715985074810512,19.2740232209623
4.736041017750204,14.357976812376775
4.756096960689895,12.641262193505638
4.776152903629587,10.924547574634502
4.796208846569278,11.158645022662384
4.81626478950897,12.602245952167657
4.8363207324486615,18.10353598082289
4.856376675388352,23.58531788880913
4.876432618328043,33.12478889594533
4.896488561267734,41.181642732238274
4.916544504207426,48.4776798624406
4.936600447147118,50.4675081706776
4.956656390086809,48.53620422444757
4.976712333026501,38.09935966653782
4.9967682759661916,30.783814415666505
5.0168242189058825,22.51237125201467
5.036880161845574,14.767647346425568
5.056936104785265,11.061104419317433
5.076992047724957,9.129800473087405
5.097047990664648,8.076361956961936
5.11710393360434,7.5496426988992
5.137159876544032,7.705707664251122
5.157215819483722,6.671777268794642
5.1772717624234135,7.51062645756122
5.197327705363104,8.056853836292944
5.217383648302796,8.56406497368669
5.237439591242488,8.427508129003758
5.257495534182179,8.427508129003758
5.277551477121871,10.67094200593763
5.297607420061561,11.568315556711179
5.317663363001253,12.680278434843618
5.3377193059409445,16.0941995519169
5.357775248880635,17.888946653463996
5.377831191820327,19.917791203038977
5.397887134760018,23.117122992753366
5.41794307769971,23.507285406133168
5.437999020639402,21.380900253213238
5.458054963579092,17.732881688112077
5.478110906518784,13.96781439899697
5.498166849458475,11.353726229352286
5.518222792398166,9.188324835094376
5.538278735337858,7.783740146927083
5.558334678277549,7.120464044181416
5.578390621217241,6.496204182773731
5.598446564156931,6.39866357942878
5.618502507096623,6.242598614076858
5.638558450036315,6.320631096752819
5.6586143929760055,6.262106734745848
5.678670335915697,5.735387476683114
5.698726278855388,5.8914524420350345
5.71878222179508,5.910960562704025
5.738838164734771,6.632761027456662
5.758894107674462,7.061939682174446
5.778950050614154,10.261271471888836
5.799005993553845,15.645512776530126
5.8190619364935365,22.39532252800073
5.839117879433228,30.842338777673476
5.859173822372919,38.39198147657268
5.87922976531261,45.005234383360346
5.899285708252301,46.819489605576436
5.919341651191993,44.088352711917814
5.939397594131685,38.021327183861864
5.959453537071376,30.393652002286704
5.9795094800110675,23.31220419944327
5.9995654229507585,16.796491896000546
6.01962136589045,13.714208830300098
6.039677308830141,11.841429246077041
6.059733251769832,10.84651509195854
6.079789194709524,12.075526694104923
6.099845137649215,11.919461728753001
6.119901080588907,13.81174943364505
6.1399570235285985,16.367313241282762
6.160012966468289,19.23500697962432
6.18006890940798,25.71170304172906
6.200124852347671,41.3377076975902
6.220180795287363,79.18346179543114
6.240236738227055,173.77833891936453
6.260292681166746,364.89939711346136
6.280348624106438,750.1067478433415
6.300404567046129,1365.3538575019538
6.3204605099858195,2289.316976747336
6.340516452925511,3388.7556414102846
6.360572395865202,4527.327596135227
6.380628338804894,5354.374371897066
6.400684281744585,5662.836775915139
6.420740224684277,5345.556701354682
6.440796167623969,4491.218064776926
6.460852110563659,3370.8862028774893
6.4809080535033505,2259.09889783107
6.500963996443042,1347.367370245145
6.521019939382733,732.3348499138914
6.541075882322425,362.55842263318254
6.561131825262116,162.38559644867428
6.581187768201808,73.40905807741005
6.6012437111415,38.62607892460056
6.62129965408119,24.46318331891369
6.6413555970208815,18.727795842230574
6.6614115399605724,16.816000016669538
6.681467482900264,16.25026451726882
6.701523425839956,16.01616706924094
6.721579368779647,15.00174479445345
6.741635311719339,16.737967533993576
6.761691254659029,17.030589344028428
6.781747197598721,18.0840278601539
6.8018031405384125,21.654013942579102
6.821859083478103,24.541215801589647
6.841915026417795,29.96447334756892
6.861970969357486,37.943294701185906
6.882026912297178,54.057002373771795
6.902082855236869,80.84165205229532
6.92213879817656,129.3583481560739
6.942194741116252,213.45785636009057
6.962250684055943,336.84671959145345
6.982306626995634,491.11693784182785
7.002362569935326,674.2786828029766
7.022418512875017,834.3233047713721
7.042474455814709,928.3134301545668
7.062530398754399,954.2592306443237
7.082586341694091,867.5651423913314
7.102642284633783,715.8504879485947
7.122698227573474,537.5657731546935
7.142754170513165,361.3879353930431
7.162810113452856,220.07110926687824
7.182866056392548,124.7739397988612
7.202921999332239,68.78563347885938
7.22297794227193,33.04675641326937
7.243033885211622,16.894032499345496
7.263089828151313,8.700621818369621
7.283145771091005,5.345225063303309
7.303201714030696,4.720965201895624
7.323257656970387,4.994078891261487
7.343313599910078,4.955062649923506
7.363369542849769,6.1840742520698875
7.383425485789461,8.193410680975877
7.403481428729153,9.480946645129228
7.423537371668844,12.251099780125834
7.443593314608536,14.377484933045764
7.4636492575482265,13.98732251966596
7.483705200487917,16.30878887927579
7.503761143427609,14.084863123010912
7.5238170863673,12.680278434843618
7.543873029306992,9.7345522138261
7.563928972246683,7.920296991610014
7.583984915186375,5.208668218620378
7.604040858126067,4.584408357212693
7.6240968010657575,4.467359633198751
7.644152744005448,3.901624133798036
7.664208686945139,3.6870348064391445
7.684264629884831,3.4724454790802524
7.704320572824523,3.316380513728331
7.724376515764214,3.2383480310523702
7.744432458703906,3.2578561517213602
7.764488401643597,3.413921117073282
7.784544344583288,3.101791186369439
7.804600287522979,3.901624133798036
7.82465623046267,3.335888634397321
7.844712173402362,3.4919535997492424
7.864768116342053,4.642932719219663
7.884824059281745,4.369819029853801
7.904880002221437,5.8134199593590745
7.924935945161127,6.5157123034427205
7.944991888100819,7.51062645756122
7.9650478310405095,11.002580057310462
7.985103773980201,13.441095140934236
8.005159716919893,16.13321579325488
8.025215659859583,18.064519739484908
8.045271602799275,16.93304874068348
8.065327545738967,16.835508137338525
8.085383488678659,15.079777277129411
8.10543943161835,12.89486776220251
8.12549537455804,9.59799536914317
8.145551317497732,7.296037130202328
8.165607260437422,5.8524362006970545
8.185663203377114,5.2281763392893685
8.205719146316806,4.33080278851582
8.225775089256498,4.642932719219663
8.24583103219619,4.740473322564614
8.26588697513588,4.955062649923506
8.285942918075573,5.42325754597927
8.305998861015263,4.038180978480968
8.326054803954953,3.901624133798036
8.346110746894645,3.6090023237631836
8.366166689834337,3.648018565101164
8.386222632774029,3.2383480310523702
8.406278575713719,2.575071928306704
8.426334518653412,3.0822830657004485
8.446390461593102,3.023758703693478
8.466446404532793,3.648018565101164
8.486502347472486,4.603916477881683
8.506558290412176,5.618338752669172
8.526614233351868,9.051767990411445
8.546670176291558,12.387656624808766
8.566726119231252,16.19174015526185
8.586782062170942,19.995823685714935
8.606838005110632,22.200241321310827
8.626893948050325,24.775313249617533
8.646949890990015,23.955972181519943
8.667005833929707,21.888111390606984
8.687061776869399,19.29353134163129
8.70711771980909,15.567480293854166
8.72717366274878,10.67094200593763
8.74722960568847,8.037345715623955
8.767285548628164,5.676863114676143
8.787341491567854,4.23326218517087
8.807397434507546,4.642932719219663
8.827453377447238,4.584408357212693
8.84750932038693,4.681948960557643
8.86756526332662,4.389327150522791
8.887621206266312,5.306208821965329
8.907677149206004,5.579322511331192
8.927733092145694,4.759981443233604
8.947789035085385,4.389327150522791
8.967844978025077,3.862607892460056
8.98790092096477,3.6090023237631836
9.00795686390446,3.2773642723903507
9.028012806844151,2.536055686968724
9.048068749783843,2.809169376334586
9.068124692723533,2.3019582389408413
9.088180635663226,2.3019582389408413
9.108236578602916,2.379990721616802
9.128292521542608,2.809169376334586
9.148348464482298,3.19933178971439
9.16840440742199,3.530969841087223
9.188460350361682,4.213754064501879
9.208516293301372,4.3503109091848104
9.228572236241066,4.994078891261487
9.248628179180756,5.403749425310281
9.268684122120447,4.408835271191781
9.28874006506014,3.8430997717910658
9.30879600799983,3.901624133798036
9.328851950939521,3.4724454790802524
9.348907893879211,2.887201859010547
9.368963836818905,2.809169376334586
9.389019779758595,2.555563807637714
9.409075722698287,2.809169376334586
9.429131665637978,2.789661255665596
9.44918760857767,2.770153134996606
9.46924355151736,3.335888634397321
9.489299494457052,3.979656616473997
9.509355437396744,4.447851512529762
9.529411380336434,4.838013925909565
9.549467323276126,5.247684459958359
9.569523266215818,5.774403718021094
9.58957920915551,5.3647331839723
9.6096351520952,5.1891600979513886
9.629691095034891,4.916046408585526
9.649747037974583,3.6285104444321736
9.669802980914273,3.3944129964042915
9.689858923853967,3.21883991038338
9.709914866793657,2.809169376334586
9.729970809733349,2.5945800489756943
9.750026752673039,1.8727795842230575
9.77008269561273,1.9898283082369985
9.790138638552422,1.599665894857195
9.810194581492112,2.223925756264881
9.830250524431806,1.8922877048920477
9.850306467371496,2.16540139425791
9.870362410311188,2.0288445495749787
9.89041835325088,1.9898283082369985
9.91047429619057,2.360482600947812
9.930530239130261,2.4190069629547826
9.950586182069951,2.555563807637714
9.970642125009645,2.4970394456307434
9.990698067949335,2.1849095149269004
10.010754010889027,2.6335962903136747
10.030809953828719,3.5894942030941936
10.050865896768409,3.413921117073282
10.0709218397081,3.9211322544670266
10.090977782647792,3.2773642723903507
10.111033725587484,3.8235916511220758
10.131089668527174,3.4529373584112624
10.151145611466866,3.1603155483764094
10.171201554406558,2.789661255665596
10.191257497346248,2.8481856176725664
10.21131344028594,2.3019582389408413
10.231369383225632,2.575071928306704
10.251425326165323,2.3994988422857926
10.271481269105013,2.555563807637714
10.291537212044707,2.4385150836237726
10.311593154984397,2.1849095149269004
10.331649097924087,2.0873689115819496
10.35170504086378,2.1068770322509396
10.37176098380347,2.223925756264881
10.391816926743163,1.931303946230028
10.411872869682853,2.3409744802788217
10.431928812622546,2.536055686968724
10.451984755562236,1.9703201875680083
10.472040698501926,2.4385150836237726
10.49209664144162,2.3214663596098317
10.51215258438131,2.16540139425791
10.532208527321002,2.3994988422857926
10.552264470260694,3.004250583024488
10.572320413200385,2.8286774970035764
10.592376356140075,3.0822830657004485
10.612432299079767,2.3994988422857926
10.632488242019459,2.887201859010547
10.65254418495915,2.0873689115819496
10.672600127898841,2.3994988422857926
10.692656070838533,2.2824501182718513
10.712712013778225,2.9262181003485273
10.732767956717915,2.379990721616802
10.752823899657608,2.458023204292763
10.772879842597298,2.458023204292763
10.792935785536988,2.555563807637714
10.81299172847668,2.692120652320645
10.833047671416372,2.3994988422857926
10.853103614356064,2.9262181003485273
10.873159557295754,3.023758703693478
10.893215500235447,2.9457262210175172
10.913271443175137,2.887201859010547
10.933327386114827,2.9652343416865077
10.953383329054521,3.316380513728331
10.973439271994211,3.1408074277074194
