Energy (keV),Intensity (cps),slope,offset,liveTime
-0.017217458956643884,0.0,20.05594293969134,-17.217458956643885,50.809593200683594
0.002838483983047457,0.0
0.022894426922738798,0.0
0.042950369862430136,0.0
0.06300631280212149,0.0
0.08306225574181282,0.0
0.10311819868150417,0.0
0.12317414162119551,0.0
0.14323008456088684,0.0
0.16328602750057816,0.0
0.1833419704402695,0.0
0.20339791337996088,0.0
0.2234538563196522,0.0
0.24350979925934355,0.0
0.2635657421990349,0.0
0.2836216851387262,0.0
0.3036776280784176,0.0
0.32373357101810896,0.0
0.3437895139578002,0.0
0.3638454568974916,0.0
0.3839013998371829,0.0
0.4039573427768743,0.0
0.42401328571656566,0.01968132269924464
0.4440692286562569,0.01968132269924464
0.4641251715959483,0.03936264539848928
0.48418111453563967,0.13776925889471245
0.504237057475331,0.2558571950901803
0.5242930004150224,0.6888462944735623
0.5443489433547137,1.791000365631262
0.5644048862944051,2.834110468691228
0.5844608292340963,4.388934961931554
0.6045167721737876,5.786308873577924
0.624572715113479,7.9512543704948335
0.6446286580531704,11.749749651449049
0.6646846009928618,13.02903562689995
0.684740543932553,17.083388102944344
0.7047964868722444,19.248333599861255
0.7248524298119358,20.803158093101583
0.7449083727516271,24.857510569145976
0.7649643156913185,26.412335062386305
0.7850202586310097,28.596961882002457
0.805076201570701,29.640071985062423
0.8251321445103924,30.21083034334052
0.8451880874500838,32.74972097154308
0.8652440303897752,31.372028382595953
0.8852999733294665,32.82844626234006
0.9053559162691578,31.27362176909973
0.9254118592088492,32.78908361694157
0.9454678021485405,31.49011631879142
0.9655237450882319,32.356094517558184
0.9855796880279232,33.65506181570833
1.0056356309676144,31.982149386272535
1.0256915739073058,31.982149386272535
1.0457475168469974,32.33641319485894
1.0658034597866886,32.06087467706951
1.0858594027263797,31.7459735138816
1.1059153456660713,30.97840192861106
1.1259712886057625,31.549160286889155
1.146027231545454,31.19489647830275
1.1660831744851452,31.11617118750577
1.1861391174248366,31.332665737197463
1.206195060364528,30.899676637814082
1.2262510033042193,30.80127002431786
1.2463069462439107,30.289555634137496
1.266362889183602,30.348599602235232
1.2864188321232932,30.38796224763372
1.3064747750629846,29.187401562979797
1.326530718002676,29.935291825551094
1.3465866609423673,28.931544367889618
1.3666426038820587,28.55759923660397
1.3866985468217499,30.13210505254354
1.4067544897614415,29.95497314825034
1.4268104327011326,30.407643570332965
1.4468663756408242,31.253940446400485
1.4669223185805154,31.903424095475557
1.4869782615202065,32.59227038994912
1.507034204459898,31.431072350693686
1.5270901473995893,30.761907378919368
1.5471460903392809,29.305489499175266
1.567202033278972,27.258631938453824
1.5872579762186634,27.53417045624325
1.6073139191583548,27.71130236053645
1.6273698620980461,26.550104321281015
1.6474258050377375,26.0580712537999
1.6674817479774289,29.679434630460914
1.6875376909171202,32.06087467706951
1.7075936338568114,36.23331508930938
1.7276495767965028,39.6381839162787
1.7477055197361941,37.74877693715121
1.7677614626758855,35.26893027704639
1.787817405615577,31.076808542107283
1.8078733485552683,30.348599602235232
1.8279292914949594,27.278313261153066
1.847985234434651,29.344852144573753
1.8680411773743422,28.636324527400948
1.8880971203140335,29.561346694265445
1.908153063253725,30.25019298873901
1.928209006193416,31.470434996092177
1.9482649491331077,30.72254473352088
1.9683208920727988,30.112423729844295
1.9883768350124904,28.321423364213032
2.008432777952182,28.478873945806992
2.0284887208918727,26.589466966679506
2.0485446638315645,26.64851093477724
2.0686006067712555,26.53042299858177
2.088656549710947,24.759103955649753
2.1087124926506386,25.68412612251425
2.1287684355903296,25.310180991228602
2.148824378530021,26.9830934206644
2.1688803214697123,26.31392844889008
2.1889362644094037,25.920301994905188
2.208992207349095,24.857510569145976
2.2290481502887864,26.786280193671953
2.249104093228478,25.349543636627093
2.269160036168169,24.916554537243712
2.28921597910786,26.412335062386305
2.309271922047552,26.432016385085547
2.3293278649872433,26.589466966679506
2.3493838079269342,24.385158824364105
2.3694397508666256,25.1330490869354
2.389495693806317,24.129301629273925
2.409551636746009,24.562290728657306
2.4296075796856997,23.775037820687523
2.449663522625391,24.857510569145976
2.4697194655650825,23.735675175289032
2.4897754085047734,24.14898295197317
2.5098313514444652,22.357982586341908
2.5298872943841566,22.869696976522267
2.549943237323848,21.01965264279327
2.569999180263539,21.51168571027439
2.5900551232032303,20.862202061199316
2.610111066142922,21.86594951886079
2.6301670090826135,22.869696976522267
2.6502229520223044,22.220213327447194
2.6702788949619958,22.298938618244176
2.690334837901687,21.118059256289495
2.7103907808413785,21.452641742176656
2.73044672378107,21.747861582665323
2.7505026667207613,20.29144370292122
2.7705586096604526,21.885630841560037
2.7906145526001436,19.582916085748415
2.8106704955398354,20.803158093101583
2.8307264384795268,20.350487671018954
2.850782381419218,21.059015288191762
2.870838324358909,21.885630841560037
2.8908942672986004,22.357982586341908
2.9109502102382923,22.633521104131333
2.931006153177983,23.696312529890545
2.9510620961176746,25.50699421822105
2.971118039057366,25.17241173233389
2.9911739819970573,22.318619940943417
3.0112299249367487,20.803158093101583
3.03128586787644,19.799410635440104
3.0513418108161314,19.70100402194388
3.0713977537558224,19.799410635440104
3.0914536966955137,19.543553440349925
3.1115096396352055,18.224904819500534
3.131565582574897,19.81909195813935
3.151621525514588,18.087135560605823
3.1716774684542792,19.2680149225605
3.1917334113939706,19.366421536056723
3.2117893543336624,19.484509472252192
3.2318452972733533,19.287696245259745
3.2519012402130447,20.23239973482349
3.271957183152736,20.29144370292122
3.2920131260924275,21.157421901687986
3.312069069032119,23.479817980198852
3.33212501197181,22.3973452317404
3.3521809549115016,21.649454969169103
3.3722368978511925,18.85470714587636
3.3922928407908843,18.1658608514028
3.4123487837305757,16.217409904177583
3.432404726670267,17.339245298034527
3.452460669609958,16.11900329068136
3.4725166125496494,17.35892662073377
3.492572555489341,16.96530016674888
3.512628498429032,17.299882652636036
3.5326844413687235,17.496695879628483
3.552740384308415,21.373916451379674
3.5727963272481063,31.41139102799444
3.5928522701877976,53.15925261065976
3.612908213127489,98.17043762383226
3.6329641560671804,160.42246132154304
3.6530200990068717,238.10464201546162
3.6730760419465627,302.5216112100893
3.6931319848862545,320.96301057928156
3.713187927825946,295.2788844567673
3.733243870765637,230.8619152621396
3.753299813705328,148.41685447500382
3.7733557566450195,87.66061130243561
3.7934116995847114,47.589438286773536
3.8134676425244023,26.924049452566663
3.8335235854640937,19.405784181455214
3.853579528403785,16.80784958515492
3.873635471343476,16.020596677185136
3.893691414283168,17.65414646122244
3.913747357222859,22.10212539125173
3.9338033001625505,28.636324527400948
3.9538592431022415,38.75252439481269
3.973915186041933,47.64848225487127
3.9939711289816247,60.12644084619237
4.014027071921316,62.84246337868813
4.034083014861007,59.35886926092183
4.054138957800698,47.33358109168335
4.074194900740389,35.38701821324186
4.094250843680081,27.061818711461378
4.114306786619773,18.697256564282405
4.134362729559464,14.721629379034988
4.154418672499155,13.422662080884843
4.174474615438847,11.41516716556189
4.1945305583785375,12.359870655125633
4.214586501318229,11.277397906667177
4.234642444257921,11.572617747155848
4.254698387197612,11.100266002373976
4.274754330137304,10.78536483918606
4.294810273076994,10.037474576614764
4.314866216016686,10.05715589931401
4.334922158956378,10.647595580291348
4.3549781018960685,10.372057062501923
4.37503404483576,11.060903356975485
4.395089987775451,10.824727484584551
4.415145930715143,10.805046161885306
4.435201873654834,13.954057793764449
4.455257816594525,15.882827418290422
4.475313759534217,17.477014556929237
4.495369702473908,19.189289631763522
4.5154256454135995,20.07494915322953
4.535481588353291,19.031839050169566
4.555537531292982,18.579168628086936
4.575593474232673,18.756300532380138
4.595649417172364,19.425465504154456
4.615705360112056,19.504190794951434
4.635761303051748,21.039333965492517
4.655817245991439,22.082444068552483
4.6758731889311305,19.38610285875597
4.695929131870821,18.185542174102046
4.715985074810512,13.776925889471245
4.736041017750204,12.517321236719589
4.756096960689895,10.647595580291348
4.776152903629587,9.880023995020808
4.796208846569278,9.289584314043468
4.81626478950897,8.581056696870663
4.8363207324486615,9.033727118953289
4.856376675388352,9.702892090727607
4.876432618328043,9.820980026923074
4.896488561267734,10.647595580291348
4.916544504207426,12.497639914020345
4.936600447147118,12.281145364328653
4.956656390086809,11.454529810960379
4.976712333026501,11.611980392554337
4.9967682759661916,9.860342672321563
5.0168242189058825,9.683210768028362
5.036880161845574,8.423606115276705
5.056936104785265,7.695397175404653
5.076992047724957,7.124638817126558
5.097047990664648,7.065594849028825
5.11710393360434,7.104957494427314
5.137159876544032,6.75069368584091
5.157215819483722,7.065594849028825
5.1772717624234135,7.104957494427314
5.197327705363104,7.4592213030137176
5.217383648302796,7.85284775699861
5.237439591242488,7.301770721419761
5.257495534182179,8.305518179081236
5.277551477121871,8.620419342269152
5.297607420061561,9.053408441652532
5.317663363001253,9.72257341342685
5.3377193059409445,9.151815055148756
5.357775248880635,9.42735357293818
5.377831191820327,9.880023995020808
5.397887134760018,10.01779325391552
5.41794307769971,9.604485477231384
5.437999020639402,9.939067963118541
5.458054963579092,9.447034895637426
5.478110906518784,8.738507278464619
5.498166849458475,7.616671884607674
5.518222792398166,6.6326057496454425
5.538278735337858,6.199616650262061
5.558334678277549,5.451726387690765
5.578390621217241,5.766627550878678
5.598446564156931,6.022484745968859
5.618502507096623,6.475155168051486
5.638558450036315,5.274594483397562
5.6586143929760055,5.589495646585477
5.678670335915697,5.550133001186988
5.698726278855388,5.746946228179434
5.71878222179508,5.274594483397562
5.738838164734771,5.589495646585477
5.758894107674462,8.856595214660087
5.778950050614154,10.2736504490057
5.799005993553845,16.72912429435794
5.8190619364935365,23.59790591639432
5.839117879433228,34.26518281938491
5.859173822372919,44.87341575427777
5.87922976531261,49.9118343652844
5.899285708252301,51.879966635208866
5.919341651191993,48.88840558492368
5.939397594131685,40.5632060831432
5.959453537071376,31.253940446400485
5.9795094800110675,21.43296041947741
5.9995654229507585,16.55199239006474
6.01962136589045,11.92688155574225
6.039677308830141,9.584804154532138
6.059733251769832,8.344880824479727
6.079789194709524,8.108704952088791
6.099845137649215,8.128386274788035
6.119901080588907,8.817232569261597
6.1399570235285985,10.155562512810233
6.160012966468289,12.4779585913211
6.18006890940798,16.04027799988438
6.200124852347671,24.975598505341445
6.220180795287363,47.884658127262206
6.240236738227055,99.4300422765839
6.260292681166746,213.03063689662395
6.280348624106438,424.27027342761664
6.300404567046129,789.713073307191
6.3204605099858195,1306.6626953255507
6.340516452925511,1933.3553727148985
6.360572395865202,2575.182987259965
6.380628338804894,3048.6368861129945
6.400684281744585,3240.4707384625317
6.420740224684277,3064.933021307969
6.440796167623969,2575.5962950366493
6.460852110563659,1926.407865802065
6.4809080535033505,1294.6767698017106
6.500963996443042,775.6999715453289
6.521019939382733,421.8101080902111
6.541075882322425,211.61358166227834
6.561131825262116,99.92207534406502
6.581187768201808,46.56600950641281
6.6012437111415,22.554795813334355
6.62129965408119,13.875332502967469
6.6413555970208815,12.300826687027898
6.6614115399605724,11.336441874764912
6.681467482900264,10.86409012998304
6.701523425839956,10.509826321396636
6.721579368779647,10.490144998697392
6.741635311719339,10.647595580291348
6.761691254659029,10.253969126306457
6.781747197598721,11.651343037952826
6.8018031405384125,12.497639914020345
6.821859083478103,15.528563609704019
6.841915026417795,18.441399369192226
6.861970969357486,23.794719143386768
6.882026912297178,32.25768790406196
6.902082855236869,48.78999897142746
6.92213879817656,77.85931259821179
6.942194741116252,124.72054194511327
6.962250684055943,196.1243806979728
6.982306626995634,284.94619003966386
7.002362569935326,388.7651672781793
7.022418512875017,474.0049758886079
7.042474455814709,540.2523080942653
7.062530398754399,537.811824079559
7.082586341694091,495.79220011667167
7.102642284633783,412.5598864215661
7.122698227573474,315.86554800017717
7.142754170513165,208.7794711935871
7.162810113452856,128.42063061257127
7.182866056392548,72.76185001910743
7.202921999332239,39.71690920707568
7.22297794227193,19.720685344643126
7.243033885211622,10.509826321396636
7.263089828151313,6.947506912833357
7.283145771091005,4.605429511623245
7.303201714030696,3.680407344758747
7.323257656970387,4.03467115334515
7.343313599910078,3.9559458625481723
7.363369542849769,5.077781256405117
7.383425485789461,6.5538804588484645
7.403481428729153,8.522012728772928
7.423537371668844,10.293331771704946
7.443593314608536,12.084332137336208
7.4636492575482265,13.02903562689995
7.483705200487917,12.832222399907504
7.503761143427609,12.025288169238474
7.5238170863673,9.565122831832893
7.543873029306992,8.049660983991057
7.563928972246683,6.573561781547709
7.583984915186375,5.156506547202095
7.604040858126067,3.9559458625481723
7.6240968010657575,3.483594117766301
7.644152744005448,3.9362645398489273
7.664208686945139,3.6607260220595026
7.684264629884831,3.424550149668567
7.704320572824523,2.873473114089717
7.724376515764214,3.9362645398489273
7.744432458703906,3.1096489864806527
7.764488401643597,2.814429145991983
7.784544344583288,3.0309236956836743
7.804600287522979,2.991561050285185
7.82465623046267,3.8969018944504383
7.844712173402362,3.641044699360258
7.864768116342053,3.5032754404655453
7.884824059281745,3.483594117766301
7.904880002221437,3.6016820539617687
7.924935945161127,4.487341575427777
7.944991888100819,5.235231837999073
7.9650478310405095,6.0618473913673485
7.985103773980201,7.144320139825803
8.005159716919893,6.947506912833357
8.025215659859583,8.285836856381993
8.045271602799275,8.65978198766764
8.065327545738967,7.774122466201632
8.085383488678659,6.849100299337134
8.10543943161835,6.27834194105904
8.12549537455804,5.274594483397562
8.145551317497732,4.644792157021734
8.165607260437422,4.447978930029288
8.185663203377114,3.8378579263527044
8.205719146316806,3.7591326355557255
8.225775089256498,3.700088667457992
8.24583103219619,4.192121734939108
8.26588697513588,4.192121734939108
8.285942918075573,4.231484380337597
8.305998861015263,3.2277369226761206
8.326054803954953,3.483594117766301
8.346110746894645,3.700088667457992
8.366166689834337,2.6176159189995367
8.386222632774029,2.5782532736010473
8.406278575713719,2.755385177894249
8.426334518653412,2.5388906282025583
8.446390461593102,2.7357038551950046
8.466446404532793,3.0309236956836743
8.486502347472486,4.093715121442885
8.506558290412176,4.113396444142129
8.526614233351868,5.274594483397562
8.546670176291558,7.301770721419761
8.566726119231252,8.443287437975949
8.586782062170942,9.604485477231384
8.606838005110632,11.41516716556189
8.626893948050325,11.552936424456602
8.646949890990015,12.163057428133186
8.667005833929707,11.71038700605056
8.687061776869399,9.309265636742714
8.70711771980909,7.833166434299366
8.72717366274878,5.471407710390009
8.74722960568847,4.92033067481116
8.767285548628164,3.7197699901572365
8.787341491567854,3.6607260220595026
8.807397434507546,3.149011631879142
8.827453377447238,3.3851875042700774
8.84750932038693,3.0506050183829188
8.86756526332662,3.700088667457992
8.887621206266312,3.2867808907738545
8.907677149206004,3.621363376661013
8.927733092145694,3.4639127950670563
8.947789035085385,3.700088667457992
8.967844978025077,2.5782532736010473
8.98790092096477,2.6766598870972707
9.00795686390446,2.637297241698781
9.028012806844151,2.283033433112378
9.048068749783843,2.1255828515184207
9.068124692723533,2.066538883420687
9.088180635663226,1.9681322699244637
9.108236578602916,1.9484509472252192
9.128292521542608,3.2867808907738545
9.148348464482298,3.424550149668567
9.16840440742199,3.9756271852474168
9.188460350361682,4.585748188924001
9.208516293301372,5.43204506499152
9.228572236241066,5.195869192600584
9.248628179180756,5.333638451495297
9.268684122120447,5.353319774194541
9.28874006506014,4.92033067481116
9.30879600799983,4.507022898127022
9.328851950939521,3.8772205717511934
9.348907893879211,3.3851875042700774
9.368963836818905,3.0506050183829188
9.389019779758595,2.283033433112378
9.409075722698287,2.3617587239093565
9.429131665637978,1.6925937521350387
9.44918760857767,2.283033433112378
9.46924355151736,2.5782532736010473
9.489299494457052,2.991561050285185
9.509355437396744,2.814429145991983
9.529411380336434,3.1686929545783866
9.549467323276126,3.3851875042700774
9.569523266215818,3.562319408563279
9.58957920915551,3.7591326355557255
9.6096351520952,3.8181766036534595
9.629691095034891,3.247418245375365
9.649747037974583,2.755385177894249
9.669802980914273,2.0862202061199318
9.689858923853967,2.637297241698781
9.709914866793657,2.322396078510867
9.729970809733349,2.322396078510867
9.750026752673039,2.1452641742176657
9.77008269561273,2.401121369307846
9.790138638552422,2.1255828515184207
9.810194581492112,1.9484509472252192
9.830250524431806,2.263352110413133
9.850306467371496,1.9287696245259744
9.870362410311188,2.204308142315399
9.89041835325088,1.9878135926237084
9.91047429619057,2.027176238022198
9.930530239130261,2.283033433112378
9.950586182069951,1.8303630110297513
9.970642125009645,2.027176238022198
9.990698067949335,1.8697256564282405
10.010754010889027,2.204308142315399
10.030809953828719,2.263352110413133
10.050865896768409,2.8537917913904725
10.0709218397081,2.3617587239093565
10.090977782647792,2.558571950901803
10.111033725587484,2.4798466601048244
10.131089668527174,3.0506050183829188
10.151145611466866,2.4798466601048244
10.171201554406558,2.263352110413133
10.191257497346248,2.4798466601048244
10.21131344028594,2.342077401210112
10.231369383225632,3.0506050183829188
10.251425326165323,2.440484014706335
10.271481269105013,2.5388906282025583
10.291537212044707,2.322396078510867
10.311593154984397,2.2436707877138886
10.331649097924087,2.440484014706335
10.35170504086378,2.342077401210112
10.37176098380347,2.1059015288191762
10.391816926743163,2.381440046608601
10.411872869682853,1.8697256564282405
10.431928812622546,1.850044333728996
10.451984755562236,2.322396078510867
10.472040698501926,2.381440046608601
10.49209664144162,2.223989465014644
10.51215258438131,2.5388906282025583
10.532208527321002,2.401121369307846
10.552264470260694,2.519209305503314
10.572320413200385,2.263352110413133
10.592376356140075,2.558571950901803
10.612432299079767,1.791000365631262
10.632488242019459,2.401121369307846
10.65254418495915,2.499527982804069
10.672600127898841,2.283033433112378
10.692656070838533,1.8303630110297513
10.712712013778225,2.2436707877138886
10.732767956717915,2.3617587239093565
10.752823899657608,1.7319563975335281
10.772879842597298,2.2436707877138886
10.792935785536988,2.440484014706335
10.81299172847668,2.3027147558116225
10.833047671416372,2.027176238022198
10.853103614356064,2.2436707877138886
10.873159557295754,2.322396078510867
10.893215500235447,2.283033433112378
10.913271443175137,2.4208026920070904
10.933327386114827,2.027176238022198
10.953383329054521,1.8894069791274852
10.973439271994211,2.401121369307846
