Energy (keV),Intensity (cps),slope,offset,liveTime
-0.017217458956643884,0.0,20.05594293969134,-17.217458956643885,49.38563919067383
0.002838483983047457,0.0
0.022894426922738798,0.0
0.042950369862430136,0.0
0.06300631280212149,0.0
0.08306225574181282,0.0
0.10311819868150417,0.0
0.12317414162119551,0.0
0.14323008456088684,0.0
0.16328602750057816,0.0
0.1833419704402695,0.0
0.20339791337996088,0.0
0.2234538563196522,0.0
0.24350979925934355,0.0
0.2635657421990349,0.0
0.2836216851387262,0.0
0.3036776280784176,0.0
0.32373357101810896,0.0
0.3437895139578002,0.0
0.3638454568974916,0.0
0.3839013998371829,0.0
0.4039573427768743,0.020248801400323757
0.42401328571656566,0.020248801400323757
0.4440692286562569,0.08099520560129503
0.4641251715959483,0.12149280840194254
0.48418111453563967,0.26323441820420884
0.504237057475331,0.44547363080712266
0.5242930004150224,1.2554256868200728
0.5443489433547137,2.085626544233347
0.5644048862944051,3.361301032453744
0.5844608292340963,4.96095634307932
0.6045167721737876,7.593300525121409
0.624572715113479,10.18514710436285
0.6446286580531704,13.384457725614004
0.6646846009928618,17.110237183273576
0.684740543932553,20.066562187720844
0.7047964868722444,23.974580857983327
0.7248524298119358,27.639613911441927
0.7449083727516271,30.87942213549373
0.7649643156913185,34.34196717494909
0.7850202586310097,36.06311529397661
0.805076201570701,36.670579335986325
0.8251321445103924,39.01944029842388
0.8451880874500838,38.20948824241093
0.8652440303897752,39.910387560038124
0.8852999733294665,40.25461718384363
0.9053559162691578,39.28267471662809
0.9254118592088492,39.58640673763294
0.9454678021485405,39.323172319428735
0.9655237450882319,41.1658132468582
0.9855796880279232,39.72814834743521
1.0056356309676144,39.424416326430354
1.0256915739073058,39.56615793623262
1.0457475168469974,41.20631084965884
1.0658034597866886,40.3153635880446
1.0858594027263797,37.94625382420672
1.1059153456660713,40.23436838244331
1.1259712886057625,38.20948824241093
1.146027231545454,38.45247385921481
1.1660831744851452,37.58177539900089
1.1861391174248366,37.824761015804775
1.206195060364528,39.62690434043359
1.2262510033042193,37.703268207402836
1.2463069462439107,36.56933532898471
1.266362889183602,36.81232094578859
1.2864188321232932,36.50858892478373
1.3064747750629846,37.31854098079668
1.326530718002676,36.95406255559086
1.3465866609423673,36.50858892478373
1.3666426038820587,36.02261769117596
1.3866985468217499,35.597392861769166
1.4067544897614415,35.84037847857305
1.4268104327011326,35.597392861769166
1.4468663756408242,37.88550742000575
1.4669223185805154,35.90112488277402
1.4869782615202065,35.73913447157143
1.507034204459898,37.39953618639798
1.5270901473995893,35.31390964216463
1.5471460903392809,35.29366084076431
1.567202033278972,35.27341203936398
1.5872579762186634,34.1799767637465
1.6073139191583548,33.59276152313711
1.6273698620980461,33.59276152313711
1.6474258050377375,33.835747139941
1.6674817479774289,36.95406255559086
1.6875376909171202,42.29974612527633
1.7075936338568114,49.12359219718543
1.7276495767965028,51.75593637922752
1.7477055197361941,51.06747713161651
1.7677614626758855,45.84328637033298
1.787817405615577,40.11287557404136
1.8078733485552683,34.88868481275783
1.8279292914949594,34.524206387552006
1.847985234434651,33.532015118936144
1.8680411773743422,33.99773755114359
1.8880971203140335,34.36221597634942
1.908153063253725,34.70644560015492
1.928209006193416,33.30927830353258
1.9482649491331077,33.85599594134132
1.9683208920727988,32.27658943211607
1.9883768350124904,31.58813018450506
2.008432777952182,32.29683823351639
2.0284887208918727,30.02897247668013
2.0485446638315645,32.01335501391186
2.0686006067712555,32.68156546012254
2.088656549710947,30.150465285082074
2.1087124926506386,30.413699703286284
2.1287684355903296,31.223651759299234
2.148824378530021,32.15509662371412
2.1688803214697123,30.45419730608693
2.1889362644094037,29.58349884587301
2.208992207349095,29.48225483887139
2.2290481502887864,29.947977271078837
2.249104093228478,30.312455696284662
2.269160036168169,29.927728469678513
2.28921597910786,29.138025215065884
2.309271922047552,30.271958093484017
2.3293278649872433,29.522752441672036
2.3493838079269342,28.449565967454877
2.3694397508666256,28.753297988459735
2.389495693806317,28.57105877585682
2.409551636746009,26.870159458229626
2.4296075796856997,29.3202644276688
2.449663522625391,27.315633089036748
2.4697194655650825,26.384188224621855
2.4897754085047734,26.930905862430595
2.5098313514444652,26.829661855428977
2.5298872943841566,25.857719388213436
2.549943237323848,26.68792024562671
2.569999180263539,25.91846579241441
2.5900551232032303,25.87796818961376
2.610111066142922,26.20194901201894
2.6301670090826135,26.18170021061862
2.6502229520223044,24.84527931819725
2.6702788949619958,24.561796098592716
2.690334837901687,24.8047817153966
2.7103907808413785,25.209757743403078
2.73044672378107,25.55398736720858
2.7505026667207613,24.561796098592716
2.7705586096604526,23.28612161037232
2.7906145526001436,24.075824864984945
2.8106704955398354,24.177068871986567
2.8307264384795268,22.69890636976293
2.850782381419218,22.92164318516649
2.870838324358909,23.529107227176205
2.8908942672986004,24.663040105594334
2.9109502102382923,25.10851373640146
2.931006153177983,26.566427437224768
2.9510620961176746,27.315633089036748
2.971118039057366,26.14120260781797
2.9911739819970573,25.250255346203723
3.0112299249367487,23.387365617373938
3.03128586787644,22.557164759960664
3.0513418108161314,22.273681540356133
3.0713977537558224,22.37492554735775
3.0914536966955137,21.62571989554577
3.1115096396352055,20.775270236732172
3.131565582574897,21.261241470339943
3.151621525514588,22.11169112915354
3.1716774684542792,22.354676745957427
3.1917334113939706,23.589853631377178
3.2117893543336624,28.4698147688552
3.2318452972733533,37.743765810203485
3.2519012402130447,53.3555916898531
3.271957183152736,72.47046021175872
3.2920131260924275,87.73805646760283
3.312069069032119,96.99175870755079
3.33212501197181,92.69901281068216
3.3521809549115016,73.84737870698073
3.3722368978511925,54.32753415706864
3.3922928407908843,37.66277060460219
3.4123487837305757,26.019709799416027
3.432404726670267,21.70671510114707
3.452460669609958,20.208303797523108
3.4725166125496494,19.702083762515016
3.492572555489341,20.248801400323757
3.512628498429032,20.43104061292667
3.5326844413687235,23.468360822975235
3.552740384308415,27.153642677834156
3.5727963272481063,28.449565967454877
3.5928522701877976,28.51031237165585
3.612908213127489,32.418331041918336
3.6329641560671804,33.37002470773355
3.6530200990068717,35.90112488277402
3.6730760419465627,39.24217711382744
3.6931319848862545,37.784263413004126
3.713187927825946,36.184608102378554
3.733243870765637,30.231460490683368
3.753299813705328,24.25806407758786
3.7733557566450195,20.350045407325375
3.7934116995847114,18.142926054690086
3.8134676425244023,16.138294716058034
3.8335235854640937,14.943615433438932
3.853579528403785,14.741127419435696
3.873635471343476,13.728687349419507
3.893691414283168,14.720878618035371
3.913747357222859,14.072916973225011
3.9338033001625505,14.862620227837636
3.9538592431022415,15.69282108525091
3.973915186041933,15.652323482450264
3.9939711289816247,16.887500367870015
4.014027071921316,17.434218005678755
4.034083014861007,16.92799797067066
4.054138957800698,16.421777935662565
4.074194900740389,15.328342660045085
4.094250843680081,15.409337865646378
4.114306786619773,13.708438548019183
4.134362729559464,13.080725704609147
4.154418672499155,12.878237690605909
4.174474615438847,12.817491286404938
4.1945305583785375,12.412515258398463
4.214586501318229,11.784802414988427
4.234642444257921,12.55425686820073
4.254698387197612,12.189778442994902
4.274754330137304,11.076094365977095
4.294810273076994,11.622812003785837
4.314866216016686,11.886046421990045
4.334922158956378,10.83310874917321
4.3549781018960685,11.703807209387131
4.37503404483576,11.015347961776124
4.395089987775451,12.412515258398463
4.415145930715143,12.210027244395226
4.435201873654834,12.837740087805262
4.455257816594525,14.579137008233104
4.475313759534217,16.178792318858683
4.495369702473908,16.502773141263862
4.5154256454135995,16.786256360868393
4.535481588353291,16.300285127260626
4.555537531292982,14.741127419435696
4.575593474232673,13.485701732615622
4.595649417172364,13.36420892421368
4.615705360112056,12.857988889205586
4.635761303051748,12.77699368360429
4.655817245991439,13.607194541017565
4.6758731889311305,13.505950534015946
4.695929131870821,11.339328784181303
4.715985074810512,10.387635118366086
4.736041017750204,10.468630323967382
4.756096960689895,9.92191268615864
4.776152903629587,10.104151898761554
4.796208846569278,10.225644707163497
4.81626478950897,10.34713751556544
4.8363207324486615,10.468630323967382
4.856376675388352,10.124400700161878
4.876432618328043,10.590123132369325
4.896488561267734,10.40788391976641
4.916544504207426,9.780171076356375
4.936600447147118,9.820668679157022
4.956656390086809,9.213204637147308
4.976712333026501,8.484247786735654
4.9967682759661916,8.261510971332093
5.0168242189058825,8.848726211941482
5.036880161845574,8.160266964330473
5.056936104785265,7.735042134923675
5.076992047724957,7.957778950327237
5.097047990664648,7.431310113918818
5.11710393360434,8.03877415592853
5.137159876544032,7.755290936323998
5.157215819483722,7.431310113918818
5.1772717624234135,7.512305319520114
5.197327705363104,7.714793333523351
5.217383648302796,8.322257375533065
5.237439591242488,8.868975013341805
5.257495534182179,8.9499702189431
5.277551477121871,8.970219020343425
5.297607420061561,8.443750183935007
5.317663363001253,8.342506176933387
5.3377193059409445,8.261510971332093
5.357775248880635,8.929721417542776
5.377831191820327,9.719424672155403
5.397887134760018,10.02315669316026
5.41794307769971,8.970219020343425
5.437999020639402,9.091711828745368
5.458054963579092,7.8565349433256175
5.478110906518784,7.735042134923675
5.498166849458475,7.087080490113315
5.518222792398166,6.317626036901012
5.538278735337858,6.297377235500688
5.558334678277549,6.641606859306192
5.578390621217241,6.115138022897774
5.598446564156931,5.527922782288385
5.618502507096623,5.730410796291623
5.638558450036315,5.406429973886443
5.6586143929760055,6.337874838301336
5.678670335915697,5.568420385089033
5.698726278855388,5.912650008894537
5.71878222179508,5.8519036046935655
5.738838164734771,5.710161994891299
5.758894107674462,5.6696643920906515
5.778950050614154,6.297377235500688
5.799005993553845,6.783348469108458
5.8190619364935365,7.087080490113315
5.839117879433228,7.3300661069172
5.859173822372919,10.164898302962525
5.87922976531261,9.982659090359611
5.899285708252301,11.05584556457677
5.919341651191993,9.739673473555728
5.939397594131685,10.063654295960907
5.959453537071376,8.666486999338568
5.9795094800110675,7.552802922320761
5.9995654229507585,5.973396413095508
6.01962136589045,5.93289881029486
6.039677308830141,5.770908399092271
6.059733251769832,5.872152406093889
6.079789194709524,5.588669186489357
6.099845137649215,5.8519036046935655
6.119901080588907,5.446927576687091
6.1399570235285985,5.548171583688709
6.160012966468289,6.68210446210684
6.18006890940798,7.755290936323998
6.200124852347671,9.962410288959289
6.220180795287363,14.477893001231486
6.240236738227055,28.105336343649373
6.260292681166746,60.70590659817062
6.280348624106438,112.11761335359265
6.300404567046129,203.56120047745472
6.3204605099858195,337.56776814479736
6.340516452925511,496.43986393173753
6.360572395865202,654.0362852304573
6.380628338804894,787.4353888557903
6.400684281744585,833.7848952611313
6.420740224684277,783.3451309729248
6.440796167623969,656.6281318096987
6.460852110563659,496.0348879037311
6.4809080535033505,331.7361133415041
6.500963996443042,201.31358352201877
6.521019939382733,108.63481951273695
6.541075882322425,54.5502709724722
6.561131825262116,27.133393876433832
6.581187768201808,13.890677760622097
6.6012437111415,8.524745389536301
6.62129965408119,6.236630831299717
6.6413555970208815,5.629166789290005
6.6614115399605724,5.446927576687091
6.681467482900264,5.244439562683853
6.701523425839956,5.325434768285148
6.721579368779647,5.021702747280291
6.741635311719339,4.879961137478025
6.761691254659029,5.224190761283529
6.781747197598721,4.717970726275436
6.8018031405384125,5.2849371654845
6.821859083478103,5.689913193490976
6.841915026417795,6.25687963270004
6.861970969357486,7.471807716719466
6.882026912297178,10.40788391976641
6.902082855236869,13.829931356421126
6.92213879817656,23.02288719216811
6.942194741116252,33.89649354414197
6.962250684055943,50.8852379190136
6.982306626995634,73.38165627477329
7.002362569935326,102.9651551206463
7.022418512875017,124.22639659098624
7.042474455814709,138.29931356421125
7.062530398754399,141.9238490148692
7.082586341694091,132.69039557632158
7.102642284633783,109.24228355474666
7.122698227573474,83.42506176933388
7.142754170513165,55.46146703548677
7.162810113452856,34.605201593153296
7.182866056392548,21.50422708714383
7.202921999332239,12.432764059798787
7.22297794227193,7.512305319520114
7.243033885211622,4.819214733277054
7.263089828151313,4.535731513672522
7.283145771091005,3.1993106212511537
7.303201714030696,3.2600570254521246
7.323257656970387,2.8550809974456497
7.343313599910078,3.5435402450566573
7.363369542849769,3.158813018450506
7.383425485789461,3.7257794576595713
7.403481428729153,3.8675210674618374
7.423537371668844,3.401798635254391
7.443593314608536,3.8675210674618374
7.4636492575482265,3.7865258618605426
7.483705200487917,3.6042866492576286
7.503761143427609,3.8877698688621614
7.5238170863673,2.9360762030469445
7.543873029306992,3.219559422651477
7.563928972246683,3.0980666142495346
7.583984915186375,2.9563250044472684
7.604040858126067,2.8753297988459736
7.6240968010657575,2.8753297988459736
7.644152744005448,2.8348321960453258
7.664208686945139,3.1993106212511537
7.684264629884831,3.158813018450506
7.704320572824523,3.057569011448887
7.724376515764214,3.7662770604602187
7.744432458703906,3.1385642170501824
7.764488401643597,4.373741102469931
7.784544344583288,3.1993106212511537
7.804600287522979,4.839463534677378
7.82465623046267,4.373741102469931
7.844712173402362,4.47498510947155
7.864768116342053,4.879961137478025
7.884824059281745,5.163444357082558
7.904880002221437,5.406429973886443
7.924935945161127,6.297377235500688
7.944991888100819,5.93289881029486
7.9650478310405095,7.1680756957146095
7.985103773980201,7.593300525121409
8.005159716919893,8.585491793737273
8.025215659859583,8.261510971332093
8.045271602799275,9.233453438547633
8.065327545738967,8.585491793737273
8.085383488678659,8.119769361529826
8.10543943161835,7.350314908317523
8.12549537455804,6.094889221497451
8.145551317497732,4.495233910871874
8.165607260437422,3.82702346466119
8.185663203377114,3.6245354506579526
8.205719146316806,2.6930905862430596
8.225775089256498,2.4501049694391743
8.24583103219619,2.733588189043707
8.26588697513588,2.571597777841117
8.285942918075573,2.895578600246297
8.305998861015263,2.7943345932446784
8.326054803954953,3.1385642170501824
8.346110746894645,3.4625450394553625
8.366166689834337,2.9563250044472684
8.386222632774029,3.4220474366547147
8.406278575713719,3.5840378478573047
8.426334518653412,3.2600570254521246
8.446390461593102,3.9485162730631327
8.466446404532793,3.7055306562592474
8.486502347472486,3.806774663260866
8.506558290412176,5.062200350080939
8.526614233351868,6.742850866307811
8.546670176291558,7.897032546126265
8.566726119231252,9.496687856751842
8.586782062170942,12.169529641594577
8.606838005110632,13.343960122813355
8.626893948050325,15.348591461445407
8.646949890990015,13.991921767623715
8.667005833929707,13.303462520012708
8.687061776869399,11.298831181380656
8.70711771980909,9.27395104134828
8.72717366274878,7.431310113918818
8.74722960568847,5.831654803293242
8.767285548628164,4.454736308071227
8.787341491567854,4.009262677264104
8.807397434507546,3.8675210674618374
8.827453377447238,4.090257882865399
8.84750932038693,4.130755485666047
8.86756526332662,4.900209938878349
8.887621206266312,3.98901387586378
8.907677149206004,4.616726719273816
8.927733092145694,4.009262677264104
8.947789035085385,4.292745896868636
8.967844978025077,4.171253088466694
8.98790092096477,3.968765074463456
9.00795686390446,3.7865258618605426
9.028012806844151,3.2600570254521246
9.048068749783843,3.6650330534586
9.068124692723533,3.7055306562592474
9.088180635663226,3.5435402450566573
9.108236578602916,3.847272266061514
9.128292521542608,5.588669186489357
9.148348464482298,6.3986212425023075
9.16840440742199,7.876783744725941
9.188460350361682,9.699175870755079
9.208516293301372,10.812859947772886
9.228572236241066,12.007539230391988
9.248628179180756,11.683558407986807
9.268684122120447,11.157089571578389
9.28874006506014,10.266142309964145
9.30879600799983,8.767731006340187
9.328851950939521,7.107329291513638
9.348907893879211,5.811406001892919
9.368963836818905,4.171253088466694
9.389019779758595,3.3815498338540673
9.409075722698287,3.0170714086482397
9.429131665637978,2.8348321960453258
9.44918760857767,3.158813018450506
9.46924355151736,3.219559422651477
9.489299494457052,3.239808224051801
9.509355437396744,3.7055306562592474
9.529411380336434,3.7257794576595713
9.549467323276126,4.049760280064751
9.569523266215818,4.191501889867018
9.58957920915551,4.373741102469931
9.6096351520952,3.9485162730631327
9.629691095034891,3.7055306562592474
9.649747037974583,3.6245354506579526
9.669802980914273,3.158813018450506
9.689858923853967,3.361301032453744
9.709914866793657,3.1183154156498585
9.729970809733349,2.571597777841117
9.750026752673039,2.5513489764407935
9.77008269561273,2.490602572239822
9.790138638552422,3.0980666142495346
9.810194581492112,2.267865756836261
9.830250524431806,2.3488609624375556
9.850306467371496,2.996822607247916
9.870362410311188,2.6323441820420883
9.89041835325088,2.5513489764407935
9.91047429619057,2.6120953806417644
9.930530239130261,2.5108513736401457
9.950586182069951,2.146372948434318
9.970642125009645,2.2071193526352895
9.990698067949335,2.267865756836261
10.010754010889027,2.126124147033994
10.030809953828719,2.004631338632052
10.050865896768409,2.0653777428330233
10.0709218397081,1.5389089064246055
10.090977782647792,2.2881145582365843
10.111033725587484,2.146372948434318
10.131089668527174,2.3691097638378795
10.151145611466866,2.6525929834424122
10.171201554406558,3.34105223105342
10.191257497346248,3.1183154156498585
10.21131344028594,2.8550809974456497
10.231369383225632,3.3005546282527725
10.251425326165323,3.7055306562592474
10.271481269105013,3.644784252058276
10.291537212044707,4.454736308071227
10.311593154984397,4.434487506670902
10.331649097924087,3.7257794576595713
10.35170504086378,3.8675210674618374
10.37176098380347,4.778717130476407
10.391816926743163,5.102697952881587
10.411872869682853,6.175884427098746
10.431928812622546,8.07927175872918
10.451984755562236,10.225644707163497
10.472040698501926,13.910926562022421
10.49209664144162,15.895309099254149
10.51215258438131,18.507404479895914
10.532208527321002,20.390543010126024
10.552264470260694,19.438849344310807
10.572320413200385,19.499595748511776
10.592376356140075,15.976304304855445
10.612432299079767,13.485701732615622
10.632488242019459,10.124400700161878
10.65254418495915,8.200764567131122
10.672600127898841,6.439118845302954
10.692656070838533,5.264688364084177
10.712712013778225,3.7865258618605426
10.732767956717915,3.1993106212511537
10.752823899657608,2.753836990444031
10.772879842597298,2.7133393876433836
10.792935785536988,3.0170714086482397
10.81299172847668,2.6120953806417644
10.833047671416372,3.2803058268524485
10.853103614356064,2.8348321960453258
10.873159557295754,3.0373202100485637
10.893215500235447,3.2803058268524485
10.913271443175137,3.0373202100485637
10.933327386114827,3.4422962380550386
10.953383329054521,3.077817812849211
10.973439271994211,3.1385642170501824
