Energy (keV),Intensity (cps),slope,offset,liveTime
-0.01698342844380409,0.0,20.05422455086004,-16.98342844380409,117.3207778930664
0.003070796107055951,0.0
0.023125020657915992,0.0
0.043179245208776036,0.0
0.06323346975963608,0.0
0.08328769431049612,0.0
0.10334191886135616,0.0
0.12339614341221619,0.0
0.14345036796307625,0.0
0.16350459251393631,0.0
0.18355881706479632,0.0
0.20361304161565635,0.0
0.22366726616651642,0.0
0.24372149071737648,0.0
0.26377571526823645,0.0
0.28382993981909654,0.0
0.3038841643699566,0.0
0.3239383889208166,0.0
0.3439926134716767,0.0
0.3640468380225367,0.0
0.38410106257339677,0.0
0.4041552871242568,0.0
0.4242095116751168,0.0
0.44426373622597687,0.0
0.4643179607768369,0.0
0.484372185327697,0.025570918075009615
0.504426409878557,0.05114183615001923
0.5244806344294171,0.12785459037504807
0.544534858980277,0.2898037381834423
0.5645890835311371,0.5369892795752019
0.5846433080819972,0.9205530507003461
0.6046975326328572,1.2188804282421248
0.6247517571837172,1.6876805929506344
0.6448059817345773,2.0797680034341153
0.6648602062854374,2.727564594667692
0.6849144308362973,2.966226496701115
0.7049686553871575,3.3668375465429325
0.7250228799380175,4.031681416493182
0.7450771044888774,4.295914236601615
0.7651313290397376,4.321485154676624
0.7851855535905976,5.003376303343548
0.8052397781414575,5.600031058427105
0.8252940026923177,5.412510992543702
0.8453482272431777,5.04599450013523
0.8654024517940377,5.224990926660298
0.8854566763448978,5.224990926660298
0.9055109008957578,5.7705038455938364
0.925565125446618,5.412510992543702
0.9456193499974779,5.719362009443817
0.9656735745483379,5.625601976502115
0.985727799099198,5.813122042385519
1.005782023650058,5.787551124310509
1.0258362482009182,5.199420008585288
1.0458904727517782,5.472176468052057
1.065944697302638,5.327274598960336
1.0859989218534982,5.26760912345198
1.1060531464043581,5.2420382053769705
1.1261073709552183,4.909616270401846
1.1461615955060784,5.139754533076932
1.1662158200569384,5.276132762810317
1.1862700446077983,5.386940074468692
1.2063242691586584,5.284656402168653
1.2263784937095186,5.557412861635423
1.2464327182603785,5.122707254360259
1.2664869428112386,4.977805385268538
1.2865411673620986,4.884045352326836
1.3065953919129585,5.207943647943624
1.3266496164638188,5.224990926660298
1.3467038410146788,4.815856237460144
1.3667580655655387,5.259085484093644
1.3868122901163988,5.361369156393682
1.4068665146672588,4.781761680026798
1.4269207392181191,5.250561844735307
1.446974963768979,5.003376303343548
1.467029188319839,4.790285319385134
1.4870834128706991,5.114183615001923
1.507137637421559,5.139754533076932
1.527191861972419,5.1312308937185955
1.5472460865232793,4.986329024626874
1.5673003110741393,4.969281745910202
1.5873545356249992,4.969281745910202
1.6074087601758593,4.875521712968499
1.6274629847267192,4.773238040668461
1.6475172092775794,4.696525286443432
1.6675714338284395,4.645383450293413
1.6876256583792995,4.577194335426721
1.7076798829301594,4.892568991685173
1.7277341074810195,4.986329024626874
1.7477883320318794,5.114183615001923
1.7678425565827396,4.815856237460144
1.7878967811335997,4.866998073610163
1.8079510056844597,4.866998073610163
1.8280052302353196,4.781761680026798
1.8480594547861797,4.696525286443432
1.8681136793370399,5.04599450013523
1.8881679038879,5.276132762810317
1.90822212843876,5.472176468052057
1.9282763529896199,5.199420008585288
1.94833057754048,5.3528455170353455
1.9683848020913401,5.2420382053769705
1.9884390266422,5.216467287301961
2.00849325119306,5.114183615001923
2.02854747574392,4.994852663985211
2.04860170029478,5.011899942701884
2.06865592484564,5.224990926660298
2.0887101493965003,5.003376303343548
2.10876437394736,4.977805385268538
2.12881859849822,4.670954368368423
2.1488728230490803,5.0204235820602205
2.16892704759994,5.088612696926913
2.1889812721508,5.250561844735307
2.2090354967016603,4.705048925801769
2.22908972125252,5.07156541821024
2.2491439458033806,5.421034631902038
2.2691981703542408,5.080089057568577
2.2892523949051005,5.028947221418557
2.3093066194559606,4.790285319385134
2.3293608440068208,5.378416435110355
2.3494150685576805,5.190896369226952
2.3694692931085406,5.156801811793605
2.3895235176594007,5.080089057568577
2.4095777422102604,4.747667122593452
2.4296319667611206,4.986329024626874
2.449686191311981,4.986329024626874
2.469740415862841,4.866998073610163
2.489794640413701,4.662430729010086
2.509848864964561,4.866998073610163
2.529903089515421,4.636859810935077
2.549957314066281,4.832903516176817
2.570011538617141,4.790285319385134
2.590065763168001,5.04599450013523
2.610119987718861,4.645383450293413
2.630174212269721,4.790285319385134
2.650228436820581,5.233514566018634
2.6702826613714414,4.517528859918365
2.6903368859223016,5.04599450013523
2.7103911104731613,4.551623417351711
2.7304453350240214,4.994852663985211
2.7504995595748816,4.619812532218403
2.7705537841257413,4.875521712968499
2.7906080086766014,4.645383450293413
2.8106622332274616,4.84995079489349
2.8307164577783213,4.926663549118519
2.8507706823291814,4.645383450293413
2.870824906880042,4.807332598101807
2.8908791314309017,4.585717974785057
2.910933355981762,4.585717974785057
2.930987580532622,4.653907089651749
2.9510418050834817,4.841427155535153
2.971096029634342,5.003376303343548
2.991150254185202,4.807332598101807
3.011204478736062,4.457863384410009
3.031258703286922,4.321485154676624
3.051312927837782,4.3811506301849805
3.071367152388642,4.338532433393298
3.0914213769395023,4.168059646226567
3.1114756014903624,4.023157777134846
3.1315298260412225,4.321485154676624
3.1515840505920822,4.585717974785057
3.1716382751429424,4.636859810935077
3.1916924996938025,4.679478007726759
3.2117467242446622,4.543099777993374
3.2318009487955224,4.977805385268538
3.2518551733463825,5.233514566018634
3.2719093978972422,5.378416435110355
3.2919636224481024,5.523318304202077
3.312017846998963,6.051783944418942
3.3320720715498227,6.15406761671898
3.352126296100683,4.986329024626874
3.372180520651543,4.969281745910202
3.3922347452024026,4.423768826976663
3.412288969753263,4.8243798768184805
3.432343194304123,4.355579712109971
3.4523974188549826,4.483434302485019
3.472451643405843,4.3811506301849805
3.492505867956703,4.142488728151557
3.5125600925075626,4.253296039809932
3.532614317058423,4.261819679168269
3.5526685416092834,4.338532433393298
3.572722766160143,4.7135725651601055
3.592776990711003,4.781761680026798
3.6128312152618633,4.440816105693336
3.632885439812723,4.858474434251827
3.652939664363583,4.3811506301849805
3.6729938889144433,4.994852663985211
3.693048113465303,5.182372729868615
3.713102338016163,4.594241614143394
3.7331565625670238,4.662430729010086
3.7532107871178835,4.244772400451596
3.7732650116687436,3.8441613506097787
3.7933192362196038,3.7674485963847495
3.8133734607704635,3.9549686622681537
3.8334276853213236,3.96349230162649
3.8534819098721838,4.116917810076548
3.873536134423044,3.6822122028013844
3.8935903589739036,3.818590432534769
3.9136445835247637,3.6822122028013844
3.933698808075624,3.6395940060097014
3.953753032626484,3.7759722357430863
3.973807257177344,3.835637711251442
3.9938614817282043,3.486168497559644
4.0139157062790645,3.7759722357430863
4.033969930829924,3.426503022051288
4.054024155380784,3.5117394156346537
4.0740783799316445,3.503215776276317
4.094132604482504,3.6395940060097014
4.114186829033365,3.2304593168095477
4.1342410535842244,3.4946921369179806
4.154295278135085,3.3838848252596057
4.174349502685945,3.426503022051288
4.194403727236805,3.4435503007679613
4.214457951787664,3.4350266614096245
4.234512176338525,3.29864843167624
4.254566400889384,3.0514628902844807
4.274620625440245,3.281601152959567
4.294674849991106,3.3668375465429325
4.314729074541965,3.136699283867846
4.334783299092826,2.9832737754177883
4.354837523643685,3.07703380835949
4.374891748194545,3.1452229232261826
4.394945972745405,3.1452229232261826
4.415000197296266,3.2560302348845576
4.435054421847125,3.614023087934692
4.455108646397986,3.707783120876394
4.475162870948845,3.8015431538180957
4.495217095499705,4.372626990826644
4.515271320050566,3.2901247923179033
4.535325544601426,3.6395940060097014
4.555379769152286,3.3412666284679227
4.575433993703146,3.136699283867846
4.5954882182540056,2.915084660551096
4.615542442804865,3.247506595526221
4.635596667355726,2.7872300701760477
4.6556508919065855,2.8895137424760864
4.675705116457446,3.0685101690011534
4.695759341008307,2.9236082999094326
4.7158135655591655,2.9577028573427784
4.735867790110026,2.804277348892721
4.755922014660886,2.7616591521010383
4.775976239211746,2.7872300701760477
4.796030463762606,2.361048102259221
4.816084688313467,2.693470037234346
4.8361389128643255,2.6764227585176728
4.856193137415186,2.7360882340260284
4.876247361966046,2.6593754798009996
4.896301586516906,2.6764227585176728
4.916355811067767,2.6508518404426633
4.936410035618627,2.7019936765926826
4.956464260169486,2.5315208894259515
4.976518484720346,2.6423282010843265
4.996572709271207,2.173528036375817
5.016626933822066,2.3354771841842115
5.036681158372927,2.3269535448258747
5.056735382923787,2.4207135777675766
5.076789607474646,2.4207135777675766
5.096843832025506,2.0882916427924516
5.116898056576367,2.267288069317519
5.136952281127227,2.0797680034341153
5.157006505678087,2.2246698725258365
5.1770607302289475,2.0371498066424327
5.197114954779807,1.7984879046090094
5.217169179330667,2.173528036375817
5.237223403881527,1.9860079704924132
5.257277628432387,1.917818855625721
5.277331852983247,1.8155351833256825
5.2973860775341075,1.5939205600089326
5.317440302084967,2.1479571183008077
5.337494526635827,1.7814406258923363
5.3575487511866875,1.9007715769090479
5.377602975737547,1.8922479375507113
5.397657200288408,1.9263424949840575
5.4177114248392675,2.011578888567423
5.437765649390128,1.9860079704924132
5.457819873940987,2.028626167284096
5.4778740984918475,1.7643933471756632
5.497928323042707,1.5257314451422404
5.517982547593568,1.5939205600089326
5.5380367721444275,1.568349641933923
5.558090996695288,1.4404950515588748
5.578145221246148,1.5257314451422404
5.5981994457970075,1.3808295760505191
5.618253670347868,1.3978768547671923
5.638307894898728,1.3552586579755095
5.658362119449588,1.4916368877088941
5.678416344000448,1.4404950515588748
5.698470568551308,1.0825021985087402
5.718524793102167,1.5342550845005767
5.738579017653028,1.3978768547671923
5.758633242203889,1.4831132483505576
5.778687466754748,1.5257314451422404
5.798741691305609,2.028626167284096
5.818795915856468,2.488902692634269
5.838850140407328,3.3071720710345764
5.858904364958188,4.18510692494324
5.878958589509049,4.84995079489349
5.899012814059908,4.739143483235115
5.919067038610769,4.670954368368423
5.939121263161628,3.9549686622681537
5.959175487712488,3.1281756445095095
5.979229712263349,2.5400445287842883
5.999283936814209,1.6706333142339613
6.019338161365069,1.4064004941255288
6.039392385915929,1.0057894442837114
6.0594466104667895,1.0825021985087402
6.079500835017648,0.9290766900586827
6.099555059568509,1.0910258378670767
6.1196092841193686,0.8779348539086634
6.139663508670229,1.0825021985087402
6.159717733221089,0.9802185262087019
6.179771957771949,1.031360362358721
6.199826182322809,1.346735018617173
6.219880406873669,1.5598260025755863
6.239934631424529,2.471855413917596
6.259988855975389,4.84995079489349
6.28004308052625,9.128817752778431
6.300097305077109,15.444834517305805
6.320151529627969,25.97152912485143
6.340205754178829,38.10066793176432
6.360259978729689,50.238330378035556
6.380314203280549,60.5604576409811
6.40036842783141,64.58361541811594
6.42042265238227,62.861840267731964
6.440476876933129,51.52539992114437
6.46053110148399,39.66901757369825
6.480585326034849,26.696038470310036
6.50063955058571,16.71485678169795
6.52069377513657,9.861850737595374
6.54074799968743,5.395463713827028
6.560802224238289,2.949179217984442
6.58085644878915,1.7473460684589903
6.600910673340009,0.9461239687753557
6.62096489789087,0.9205530507003461
6.6410191224417305,0.792698460325298
6.66107334699259,0.6477965912335769
6.68112757154345,0.8182693784003077
6.70118179609431,0.7841748209669614
6.72123602064517,0.7586039028919519
6.74129024519603,0.6392729518752404
6.7613444697468905,0.6137020338002307
6.78139869429775,0.7330329848169422
6.80145291884861,0.6392729518752404
6.82150714339947,0.7586039028919519
6.84156136795033,0.9120294113420095
6.861615592501191,0.9461239687753557
6.8816698170520505,1.0398840017170576
6.901724041602911,1.363782297333846
6.921778266153771,1.9092952162673844
6.9418324907046305,2.7531355127427015
6.96188671525549,4.219201482376586
6.981940939806351,5.6596965339354615
7.0019951643572105,8.165646505286404
7.022049388908071,9.367479654811856
7.042103613458931,10.611931001128989
7.0621578380097905,11.157443920062528
7.082212062560651,10.509647328828951
7.102266287111511,8.719683063578278
7.122320511662371,6.546155027202461
7.142374736213231,4.585717974785057
7.162428960764092,3.0685101690011534
7.1824831853149504,1.824058822684019
7.202537409865811,1.2444513463171345
7.222591634416671,0.6733675093085865
7.242645858967531,0.6307493125169038
7.262700083518392,0.4943710827835192
7.282754308069252,0.46027652535017305
7.302808532620111,0.43470560727516344
7.322862757170971,0.4517528859918365
7.342916981721832,0.4773238040668461
7.362971206272691,0.5114183615001923
7.383025430823552,0.5284656402168654
7.403079655374412,0.7671275422502883
7.423133879925271,0.9461239687753557
7.443188104476131,1.0398840017170576
7.463242329026992,1.0739785591504039
7.483296553577852,1.0228367230003845
7.503350778128712,1.0739785591504039
7.5234050026795725,1.0398840017170576
7.543459227230431,0.5881311157252211
7.563513451781292,0.571083837008548
7.583567676332152,0.41765832855849033
7.603621900883012,0.6137020338002307
7.623676125433872,0.43470560727516344
7.643730349984732,0.38356377112514417
7.663784574535591,0.37504013176680767
7.683838799086452,0.3665164924084711
7.703893023637312,0.35799285305013456
7.723947248188172,0.30685101690011535
7.744001472739033,0.4006110498418173
7.764055697289892,0.4943710827835192
7.784109921840753,0.3665164924084711
7.804164146391612,0.40913468920015383
7.824218370942472,0.32389829561678846
7.844272595493332,0.5455129189335384
7.864326820044193,0.6051783944418941
7.884381044595052,0.5199420008585288
7.904435269145913,0.7159857061002691
7.924489493696773,1.4149241334838654
7.944543718247632,1.713251511025644
7.964597942798493,2.122386200225798
7.984652167349353,2.9832737754177883
8.004706391900212,3.5543576124263363
8.024760616451072,4.577194335426721
8.044814841001934,4.338532433393298
8.064869065552793,3.96349230162649
8.084923290103653,3.7504013176680764
8.104977514654513,3.0088446934927977
8.125031739205372,2.2928589873925285
8.145085963756234,1.568349641933923
8.165140188307094,0.9972658049253749
8.185194412857953,0.9205530507003461
8.205248637408813,0.5796074763668846
8.225302861959673,0.43470560727516344
8.245357086510534,0.5284656402168654
8.265411311061392,0.38356377112514417
8.285465535612254,0.4261819679168269
8.305519760163113,0.4006110498418173
8.325573984713975,0.34946921369179806
8.345628209264834,0.43470560727516344
8.365682433815692,0.30685101690011535
8.385736658366554,0.4773238040668461
8.405790882917413,0.43470560727516344
8.425845107468275,0.5199420008585288
8.445899332019133,0.6733675093085865
8.465953556569993,1.0910258378670767
8.486007781120854,1.9945316098507497
8.506062005671714,3.2730775136012307
8.526116230222573,5.233514566018634
8.546170454773433,7.95255552132799
8.566224679324295,10.876163821237423
8.586278903875154,14.208906810347008
8.606333128426014,16.0500129117477
8.626387352976874,17.8229298982817
8.646441577527733,18.180922751331835
8.666495802078595,16.032965633031026
8.686550026629455,14.191859531630335
8.706604251180313,10.168701754495489
8.726658475731174,6.835958765385903
8.746712700282034,4.943710827835192
8.766766924832895,3.136699283867846
8.786821149383755,1.9433897737007306
8.806875373934615,1.3723059366921826
8.826929598485474,1.0654549197920673
8.846983823036334,1.0654549197920673
8.867038047587195,0.9461239687753557
8.887092272138053,1.0228367230003845
8.907146496688915,1.0228367230003845
8.927200721239775,1.0825021985087402
8.947254945790636,0.8608875751919903
8.967309170341494,0.903505771983673
8.987363394892354,0.6733675093085865
9.007417619443215,0.6563202305919134
9.027471843994075,0.46027652535017305
9.047526068544936,0.5199420008585288
9.067580293095794,0.5796074763668846
9.087634517646654,0.5199420008585288
9.107688742197515,0.6989384273835961
9.127742966748375,0.8267930177586441
9.147797191299235,0.9972658049253749
9.167851415850095,1.2274040676004614
9.187905640400956,1.1677385920921057
9.207959864951816,1.4490186909172114
9.228014089502675,1.3808295760505191
9.248068314053535,1.2018331495254517
9.268122538604395,1.0057894442837114
9.288176763155256,0.8438402964753172
9.308230987706116,0.6051783944418941
9.328285212256974,0.5625601976502115
9.348339436807835,0.4261819679168269
9.368393661358695,0.5369892795752019
9.388447885909557,0.5284656402168654
9.408502110460416,0.6477965912335769
9.428556335011276,0.7756511816086249
9.448610559562136,0.9205530507003461
9.468664784112995,1.2614986250338076
9.488719008663857,1.6535860355172882
9.508773233214715,2.267288069317519
9.528827457765576,2.8980373818344227
9.548881682316436,3.3497902678262594
9.568935906867297,3.2560302348845576
9.588990131418155,3.264553874242894
9.609044355969015,3.1793174806595283
9.629098580519877,3.042939250926144
9.649152805070736,2.0797680034341153
9.669207029621598,1.7729169865339998
9.689261254172456,1.1506913133754326
9.709315478723315,0.9120294113420095
9.729369703274177,0.5540365582918749
9.749423927825037,0.48584744342518266
9.769478152375896,0.4006110498418173
9.789532376926756,0.2898037381834423
9.809586601477617,0.2642328201084327
9.829640826028477,0.2898037381834423
9.849695050579337,0.32389829561678846
9.869749275130197,0.22161462331674997
9.889803499681056,0.28128009882510574
9.909857724231918,0.2471855413917596
9.929911948782777,0.30685101690011535
9.949966173333635,0.23013826267508652
9.970020397884497,0.2983273775417788
9.990074622435356,0.2471855413917596
10.010128846986218,0.2471855413917596
10.030183071537076,0.28128009882510574
10.050237296087937,0.23866190203342305
10.070291520638797,0.2642328201084327
10.090345745189657,0.3153746562584519
10.110399969740518,0.33242193497512496
10.130454194291376,0.2471855413917596
10.150508418842238,0.2983273775417788
10.170562643393097,0.28128009882510574
10.190616867943957,0.35799285305013456
10.210671092494817,0.30685101690011535
10.230725317045676,0.38356377112514417
10.250779541596538,0.3920874104834807
10.270833766147398,0.5625601976502115
10.290887990698259,0.7500802635336153
10.310942215249117,0.9290766900586827
10.330996439799977,1.2614986250338076
10.351050664350838,1.9774843311340768
10.371104888901698,3.0685101690011534
10.391159113452558,4.432292466334999
10.411213338003417,6.452394994260759
10.431267562554279,9.47828696647023
10.451321787105138,12.657604447129758
10.471376011655998,15.70906733741424
10.491430236206858,20.252167115407612
10.511484460757718,23.90880840013399
10.531538685308579,26.67899119159336
10.551592909859439,27.32678778282694
10.571647134410297,26.23576194495986
10.591701358961158,23.099062661092017
10.611755583512018,19.041810326523827
10.63180980806288,16.194914780839422
10.651864032613737,10.901734739312431
10.671918257164599,8.233835620153096
10.691972481715458,4.918139909760182
10.712026706266318,3.4520739401262976
10.73208093081718,1.807011543967346
10.752135155368038,1.0910258378670767
10.772189379918899,0.7415566241752788
10.792243604469759,0.5540365582918749
10.812297829020618,0.5284656402168654
10.832352053571478,0.3920874104834807
10.852406278122338,0.35799285305013456
10.8724605026732,0.46027652535017305
10.892514727224059,0.38356377112514417
10.91256895177492,0.38356377112514417
10.932623176325778,0.2983273775417788
10.952677400876638,0.23866190203342305
