Energy (keV),Intensity (cps),slope,offset,liveTime
-0.01698342844380409,0.0,20.05422455086004,-16.98342844380409,117.14761352539062
0.003070796107055951,0.0
0.023125020657915992,0.0
0.043179245208776036,0.0
0.06323346975963608,0.0
0.08328769431049612,0.0
0.10334191886135616,0.0
0.12339614341221619,0.0
0.14345036796307625,0.0
0.16350459251393631,0.0
0.18355881706479632,0.0
0.20361304161565635,0.0
0.22366726616651642,0.0
0.24372149071737648,0.0
0.26377571526823645,0.0
0.28382993981909654,0.0
0.3038841643699566,0.0
0.3239383889208166,0.0
0.3439926134716767,0.0
0.3640468380225367,0.0
0.38410106257339677,0.0
0.4041552871242568,0.0
0.4242095116751168,0.0
0.44426373622597687,0.00853623876668439
0.4643179607768369,0.02560871630005317
0.484372185327697,0.04268119383342195
0.504426409878557,0.07682614890015951
0.5244806344294171,0.20486973040042536
0.544534858980277,0.36705826696742877
0.5645890835311371,0.5207105647677478
0.5846433080819972,0.9048413092685453
0.6046975326328572,1.3231170088360804
0.6247517571837172,1.8523638123705126
0.6448059817345773,2.4413642872717354
0.6648602062854374,2.8596399868392703
0.6849144308362973,3.201089537506646
0.7049686553871575,4.285191860875564
0.7250228799380175,4.532742785109411
0.7450771044888774,5.326612990411059
0.7651313290397376,5.437584094377956
0.7851855535905976,5.360757945477797
0.8052397781414575,6.180236867079498
0.8252940026923177,6.393642836246608
0.8453482272431777,6.111946956946023
0.8654024517940377,6.504613940213505
0.8854566763448978,6.513150178980189
0.9055109008957578,6.419251552546661
0.925565125446618,6.248526777212973
0.9456193499974779,6.376570358713239
0.9656735745483379,6.069265763112601
0.985727799099198,6.803382297047459
1.005782023650058,6.299744209813079
1.0258362482009182,6.359497881179871
1.0458904727517782,6.094874479412654
1.065944697302638,6.376570358713239
1.0859989218534982,6.000975852979126
1.1060531464043581,6.205845583379551
1.1261073709552183,6.171700628312814
1.1461615955060784,5.992439614212442
1.1662158200569384,6.154628150779445
1.1862700446077983,5.966830897912389
1.2063242691586584,5.958294659145704
1.2263784937095186,5.966830897912389
1.2464327182603785,5.838787316412122
1.2664869428112386,5.992439614212442
1.2865411673620986,5.591236392178275
1.3065953919129585,5.625381347245013
1.3266496164638188,5.796106122578701
1.3467038410146788,5.813178600112069
1.3667580655655387,5.582700153411591
1.3868122901163988,5.830251077645438
1.4068665146672588,5.6851350186118035
1.4269207392181191,5.8900047490122285
1.446974963768979,5.565627675878222
1.467029188319839,5.87293227147886
1.4870834128706991,5.813178600112069
1.507137637421559,5.676598779845119
1.527191861972419,5.727816212445226
1.5472460865232793,5.429047855611272
1.5673003110741393,5.488801526978063
1.5873545356249992,5.343685467944428
1.6074087601758593,5.753424928745279
1.6274629847267192,5.488801526978063
1.6475172092775794,5.394902900544534
1.6675714338284395,5.676598779845119
1.6876256583792995,5.9070772265455975
1.7076798829301594,5.676598779845119
1.7277341074810195,5.838787316412122
1.7477883320318794,5.813178600112069
1.7678425565827396,5.744888689978595
1.7878967811335997,5.65952630231175
1.8079510056844597,5.779033645045332
1.8280052302353196,5.147351976310687
1.8480594547861797,5.719279973678541
1.8681136793370399,5.676598779845119
1.8881679038879,5.9070772265455975
1.90822212843876,6.504613940213505
1.9282763529896199,5.838787316412122
1.94833057754048,5.87293227147886
1.9683848020913401,5.753424928745279
1.9884390266422,5.787569883812016
2.00849325119306,5.650990063545066
2.02854747574392,5.787569883812016
2.04860170029478,5.710743734911857
2.06865592484564,5.8985409877789134
2.0887101493965003,5.633917586011697
2.10876437394736,5.625381347245013
2.12881859849822,6.00951209174581
2.1488728230490803,5.770497406278648
2.16892704759994,5.73635245121191
2.1889812721508,5.616845108478328
2.2090354967016603,5.966830897912389
2.22908972125252,6.069265763112601
2.2491439458033806,5.420511616844587
2.2691981703542408,5.983903375445757
2.2892523949051005,5.557091437111538
2.3093066194559606,5.719279973678541
2.3293608440068208,5.574163914644907
2.3494150685576805,5.727816212445226
2.3694692931085406,5.616845108478328
2.3895235176594007,5.94975842037902
2.4095777422102604,5.6851350186118035
2.4296319667611206,5.6851350186118035
2.449686191311981,5.9070772265455975
2.469740415862841,5.292468035344322
2.489794640413701,5.5229464820448
2.509848864964561,5.9070772265455975
2.529903089515421,5.505874004511432
2.549957314066281,5.454656571911325
2.570011538617141,5.557091437111538
2.590065763168001,5.44612033314464
2.610119987718861,5.616845108478328
2.630174212269721,5.65952630231175
2.650228436820581,5.787569883812016
2.6702826613714414,5.38636666177785
2.6903368859223016,5.403439139311219
2.7103911104731613,5.6851350186118035
2.7304453350240214,5.531482720811485
2.7504995595748816,5.847323555178807
2.7705537841257413,6.368034119946555
2.7906080086766014,5.301004274111006
2.8106622332274616,5.693671257378488
2.8307164577783213,5.4717290494446935
2.8507706823291814,5.540018959578169
2.870824906880042,5.335149229177744
2.8908791314309017,5.6851350186118035
2.910933355981762,5.488801526978063
2.930987580532622,5.283931796577638
2.9510418050834817,5.207105647677477
2.971096029634342,5.283931796577638
2.991150254185202,5.4802652882113785
3.011204478736062,5.138815737544003
3.031258703286922,5.164424453844056
3.051312927837782,5.275395557810953
3.071367152388642,5.11320702124395
3.0914213769395023,5.394902900544534
3.1114756014903624,5.241250602744215
3.1315298260412225,5.642453824778381
3.1515840505920822,5.420511616844587
3.1716382751429424,5.591236392178275
3.1916924996938025,5.924149704078967
3.2117467242446622,5.625381347245013
3.2318009487955224,5.941222181612336
3.2518551733463825,6.359497881179871
3.2719093978972422,6.5472951340469265
3.2919636224481024,6.957034594847777
3.312017846998963,7.085078176348043
3.3320720715498227,7.161904325248203
3.352126296100683,6.1034107181793384
3.372180520651543,5.668062541078434
3.3922347452024026,5.2497868415108995
3.412288969753263,5.241250602744215
3.432343194304123,4.857119858243418
3.4523974188549826,5.198569408910793
3.472451643405843,4.840047380710049
3.492505867956703,4.805902425643311
3.5125600925075626,4.788829948109942
3.532614317058423,5.079062066177212
3.5526685416092834,4.694931321676414
3.572722766160143,5.642453824778381
3.592776990711003,5.096134543710581
3.6128312152618633,5.121743260010634
3.632885439812723,5.463192810678009
3.652939664363583,4.908337290843524
3.6729938889144433,5.411975378077903
3.693048113465303,4.933946007143577
3.713102338016163,4.8315111419433645
3.7331565625670238,5.17296069261074
3.7532107871178835,4.891264813310156
3.7732650116687436,4.746148754276521
3.7933192362196038,4.464452874975936
3.8133734607704635,4.507134068809358
3.8334276853213236,4.33640929347567
3.8534819098721838,4.1912932344420355
3.873536134423044,4.643713889076308
3.8935903589739036,4.882728574543471
3.9136445835247637,4.592496456476201
3.933698808075624,4.387626726075776
3.953753032626484,4.1827569956753505
3.973807257177344,4.515670307576042
3.9938614817282043,4.1742207569086665
4.0139157062790645,4.046177175408401
4.033969930829924,4.1827569956753505
4.054024155380784,4.319336815942301
4.0740783799316445,4.464452874975936
4.094132604482504,3.798626251174553
4.114186829033365,4.216901950742089
4.1342410535842244,3.7559450573411315
4.154295278135085,3.8669161613080285
4.174349502685945,3.832771206241291
4.194403727236805,3.9095973551414507
4.214457951787664,4.054713414175085
4.234512176338525,3.824234967474607
4.254566400889384,3.63643771460755
4.274620625440245,3.824234967474607
4.294674849991106,3.653510192140919
4.314729074541965,3.764481296107816
4.334783299092826,3.7303363410410784
4.354837523643685,3.6193652370741813
4.374891748194545,3.653510192140919
4.394945972745405,4.003495981574979
4.415000197296266,3.858379922541344
4.435054421847125,3.9181335939081348
4.455108646397986,3.960814787741557
4.475162870948845,4.131539563075244
4.495217095499705,3.98642350404161
4.515271320050566,4.06324965294177
4.535325544601426,3.747408818574447
4.555379769152286,3.662046430907603
4.575433993703146,3.5083941331072843
4.5954882182540056,3.4059592679070714
4.615542442804865,3.7303363410410784
4.635596667355726,3.115727149839802
4.6556508919065855,3.3205968802402275
4.675705116457446,3.4486404617404935
4.695759341008307,3.1242633886064866
4.7158135655591655,3.1413358661398556
4.735867790110026,3.2523069701067526
4.755922014660886,3.090118433539749
4.775976239211746,2.979147329572852
4.796030463762606,3.021828523406274
4.816084688313467,2.893784941906008
4.8361389128643255,3.1242633886064866
4.856193137415186,2.7742775991724264
4.876247361966046,2.9620748520394833
4.896301586516906,2.9620748520394833
4.916355811067767,2.6803789727388985
4.936410035618627,2.7657413604057424
4.956464260169486,2.629161540138792
4.976518484720346,2.757205121639058
4.996572709271207,2.44990052603842
5.016626933822066,2.5437991524719483
5.036681158372927,2.338929422071523
5.056735382923787,2.5096541974052107
5.076789607474646,2.475509242338473
5.096843832025506,2.3133207057714698
5.116898056576367,2.4157555709716823
5.136952281127227,2.390146854671629
5.157006505678087,2.210885840571257
5.1770607302289475,2.3560018996048915
5.197114954779807,2.2877119894714166
5.217169179330667,2.09991473660436
5.237223403881527,2.2450307956379945
5.257277628432387,2.44990052603842
5.277331852983247,1.971871155104094
5.2973860775341075,2.1340596916710974
5.317440302084967,2.321856944538154
5.337494526635827,1.9633349163374096
5.3575487511866875,1.9462624388040408
5.377602975737547,2.3047844670047852
5.397657200288408,2.151132169204466
5.4177114248392675,2.176740885504519
5.437765649390128,2.1340596916710974
5.457819873940987,1.8779725286705657
5.4778740984918475,1.8694362899038814
5.497928323042707,1.7157839921035622
5.517982547593568,1.8011463797704061
5.5380367721444275,1.664566559503456
5.558090996695288,1.5621316943032433
5.578145221246148,1.596276649369981
5.5981994457970075,1.5450592167698745
5.618253670347868,1.5279867392365059
5.638307894898728,1.4767693066363994
5.658362119449588,1.5621316943032433
5.678416344000448,1.510914261703137
5.698470568551308,1.485305545403084
5.718524793102167,1.3316532476027647
5.738579017653028,1.5279867392365059
5.758633242203889,1.442624351569662
5.778687466754748,1.2633633374692896
5.798741691305609,1.485305545403084
5.818795915856468,1.4511605903363463
5.838850140407328,1.7243202308702468
5.858904364958188,2.0743060203043067
5.878958589509049,2.09991473660436
5.899012814059908,2.2877119894714166
5.919067038610769,2.0230885877042004
5.939121263161628,2.2450307956379945
5.959175487712488,1.7413927084036156
5.979229712263349,1.6389578432034029
5.999283936814209,1.3914069189695555
6.019338161365069,1.3828706802028712
6.039392385915929,1.118247278435655
6.0594466104667895,1.04995736830218
6.079500835017648,1.1353197559690238
6.099555059568509,0.8621601154351234
6.1196092841193686,1.075566084602233
6.139663508670229,0.9902036969353892
6.159717733221089,0.9731312194020204
6.179771957771949,0.853623876668439
6.199826182322809,0.964594980635336
6.219880406873669,1.4596968291030306
6.239934631424529,1.6304216044367184
6.259988855975389,2.3730743771382605
6.28004308052625,3.960814787741557
6.300097305077109,6.470468985146767
6.320151529627969,10.69590717465554
6.340205754178829,15.407910973865324
6.360259978729689,20.017479907874893
6.380314203280549,24.07219332204998
6.40036842783141,25.070933257752053
6.42042265238227,24.866063527351628
6.440476876933129,20.213813399508634
6.46053110148399,16.25299861176708
6.480585326034849,10.969066815189441
6.50063955058571,7.110686892648097
6.52069377513657,3.9181335939081348
6.54074799968743,2.44990052603842
6.560802224238289,1.5365229780031902
6.58085644878915,0.8450876379017546
6.600910673340009,0.7938702053016482
6.62096489789087,0.8024064440683326
6.6410191224417305,0.7170440564014887
6.66107334699259,0.6487541462680136
6.68112757154345,0.810942682835017
6.70118179609431,0.5377830423011165
6.72123602064517,0.6658266238013824
6.74129024519603,0.5633917586011697
6.7613444697468905,0.5890004749012229
6.78139869429775,0.5804642361345385
6.80145291884861,0.6914353401014356
6.82150714339947,0.7511890114682263
6.84156136795033,0.5804642361345385
6.861615592501191,0.6402179075013292
6.8816698170520505,0.657290385034698
6.901724041602911,0.7938702053016482
6.921778266153771,0.853623876668439
6.9418324907046305,1.510914261703137
6.96188671525549,1.9804073938707785
6.981940939806351,2.7315964053390047
7.0019951643572105,3.610828998307497
7.022049388908071,4.344945532242354
7.042103613458931,4.455916636209252
7.0621578380097905,4.89980105207684
7.082212062560651,4.455916636209252
7.102266287111511,3.8413074450079754
7.122320511662371,3.107190911073118
7.142374736213231,2.279175750704732
7.162428960764092,1.5877404106032964
7.1824831853149504,1.1950734273358146
7.202537409865811,0.6828991013347512
7.222591634416671,0.6487541462680136
7.242645858967531,0.4951018484676946
7.262700083518392,0.45242065463427267
7.282754308069252,0.4865656097010102
7.302808532620111,0.4268119383342195
7.322862757170971,0.4012032220341663
7.342916981721832,0.5207105647677478
7.362971206272691,0.35852202820074436
7.383025430823552,0.47802937093432585
7.403079655374412,0.6146091912012761
7.423133879925271,0.5890004749012229
7.443188104476131,0.6914353401014356
7.463242329026992,0.6060729524345917
7.483296553577852,0.5719279973678542
7.503350778128712,0.5804642361345385
7.5234050026795725,0.4353481771009039
7.543459227230431,0.47802937093432585
7.563513451781292,0.39266698326748195
7.583567676332152,0.35852202820074436
7.603621900883012,0.39266698326748195
7.623676125433872,0.4012032220341663
7.643730349984732,0.30730459560063805
7.663784574535591,0.3755945057341131
7.683838799086452,0.460956893400957
7.703893023637312,0.4268119383342195
7.723947248188172,0.3414495506673756
7.744001472739033,0.4268119383342195
7.764055697289892,0.39266698326748195
7.784109921840753,0.4097394608008507
7.804164146391612,0.36705826696742877
7.824218370942472,0.3755945057341131
7.844272595493332,0.34998578943406
7.864326820044193,0.29876835683395364
7.884381044595052,0.5890004749012229
7.904435269145913,0.5377830423011165
7.924489493696773,0.657290385034698
7.944543718247632,0.7938702053016482
7.964597942798493,1.0414211295354956
7.984652167349353,1.2206821436358677
8.004706391900212,1.3401894863694492
8.024760616451072,1.6133491269033498
8.044814841001934,1.553595455536559
8.064869065552793,1.732856469636931
8.084923290103653,1.3060445313027116
8.104977514654513,1.2889720537693428
8.125031739205372,0.9902036969353892
8.145085963756234,0.6231454299679604
8.165140188307094,0.4012032220341663
8.185194412857953,0.4182756995675351
8.205248637408813,0.3414495506673756
8.225302861959673,0.30730459560063805
8.245357086510534,0.3414495506673756
8.265411311061392,0.34998578943406
8.285465535612254,0.2646234017672161
8.305519760163113,0.35852202820074436
8.325573984713975,0.36705826696742877
8.345628209264834,0.3414495506673756
8.365682433815692,0.3243770731340068
8.385736658366554,0.19633349163374098
8.405790882917413,0.2646234017672161
8.425845107468275,0.27315964053390046
8.445899332019133,0.35852202820074436
8.465953556569993,0.5975367136679073
8.486007781120854,0.7085078176348043
8.506062005671714,1.075566084602233
8.526116230222573,1.4767693066363994
8.546170454773433,2.1852771242712037
8.566224679324295,2.834031270539217
8.586278903875154,3.5083941331072843
8.606333128426014,4.259583144575511
8.626387352976874,4.976627200976999
8.646441577527733,4.6095689340095705
8.666495802078595,4.481525352509305
8.686550026629455,3.4059592679070714
8.706604251180313,2.646234017672161
8.726658475731174,1.9974798714041473
8.746712700282034,1.4938417841697682
8.766766924832895,1.0670298458355487
8.786821149383755,0.6316816687346448
8.806875373934615,0.36705826696742877
8.826929598485474,0.4865656097010102
8.846983823036334,0.46949313216764144
8.867038047587195,0.39266698326748195
8.887092272138053,0.460956893400957
8.907146496688915,0.4268119383342195
8.927200721239775,0.38413074450079754
8.947254945790636,0.34998578943406
8.967309170341494,0.3755945057341131
8.987363394892354,0.4353481771009039
9.007417619443215,0.30730459560063805
9.027471843994075,0.2475509242338473
9.047526068544936,0.29023211806726923
9.067580293095794,0.30730459560063805
9.087634517646654,0.30730459560063805
9.107688742197515,0.35852202820074436
9.127742966748375,0.4268119383342195
9.147797191299235,0.5121743260010634
9.167851415850095,0.503638087234379
9.187905640400956,0.46949313216764144
9.207959864951816,0.6316816687346448
9.228014089502675,0.6060729524345917
9.248068314053535,0.5377830423011165
9.268122538604395,0.5890004749012229
9.288176763155256,0.5377830423011165
9.308230987706116,0.36705826696742877
9.328285212256974,0.44388441586758826
9.348339436807835,0.3243770731340068
9.368393661358695,0.3414495506673756
9.388447885909557,0.3158408343673224
9.408502110460416,0.2475509242338473
9.428556335011276,0.46949313216764144
9.448610559562136,0.45242065463427267
9.468664784112995,0.38413074450079754
9.488719008663857,0.6487541462680136
9.508773233214715,0.6146091912012761
9.528827457765576,0.810942682835017
9.548881682316436,0.9731312194020204
9.568935906867297,1.0414211295354956
9.588990131418155,0.9560587418686517
9.609044355969015,0.9389862643352829
9.629098580519877,0.6914353401014356
9.649152805070736,0.6487541462680136
9.669207029621598,0.45242065463427267
9.689261254172456,0.45242065463427267
9.709315478723315,0.34998578943406
9.729369703274177,0.38413074450079754
9.749423927825037,0.2646234017672161
9.769478152375896,0.20486973040042536
9.789532376926756,0.18779725286705656
9.809586601477617,0.19633349163374098
9.829640826028477,0.29023211806726923
9.849695050579337,0.18779725286705656
9.869749275130197,0.21340596916710974
9.889803499681056,0.20486973040042536
9.909857724231918,0.17926101410037218
9.929911948782777,0.2816958793005849
9.949966173333635,0.23901468546716292
9.970020397884497,0.19633349163374098
9.990074622435356,0.23901468546716292
10.010128846986218,0.2560871630005317
10.030183071537076,0.2560871630005317
10.050237296087937,0.18779725286705656
10.070291520638797,0.2646234017672161
10.090345745189657,0.14511605903363461
10.110399969740518,0.21340596916710974
10.130454194291376,0.2304784467004785
10.150508418842238,0.2304784467004785
10.170562643393097,0.19633349163374098
10.190616867943957,0.23901468546716292
10.210671092494817,0.2304784467004785
10.230725317045676,0.3158408343673224
10.250779541596538,0.3158408343673224
10.270833766147398,0.29876835683395364
10.290887990698259,0.35852202820074436
10.310942215249117,0.34998578943406
10.330996439799977,0.5207105647677478
10.351050664350838,0.8024064440683326
10.371104888901698,0.8450876379017546
10.391159113452558,1.2036096661024989
10.411213338003417,1.7499289471703
10.431267562554279,2.253567034404679
10.451321787105138,3.192553298739962
10.471376011655998,3.943742310208188
10.491430236206858,4.891264813310156
10.511484460757718,5.488801526978063
10.531538685308579,6.385106597479924
10.551592909859439,6.564367611580296
10.571647134410297,6.7777735807474055
10.591701358961158,5.932685942845651
10.611755583512018,5.070525827410528
10.63180980806288,3.875452400074713
10.651864032613737,3.064509717239696
10.671918257164599,2.151132169204466
10.691972481715458,1.39994315773624
10.712026706266318,0.9475225031019673
10.73208093081718,0.6743628625680668
10.752135155368038,0.4951018484676946
10.772189379918899,0.3755945057341131
10.792243604469759,0.2560871630005317
10.812297829020618,0.3243770731340068
10.832352053571478,0.29876835683395364
10.852406278122338,0.21340596916710974
10.8724605026732,0.2475509242338473
10.892514727224059,0.3414495506673756
10.91256895177492,0.22194220793379413
10.932623176325778,0.22194220793379413
