Energy (keV),Intensity (cps),slope,offset,liveTime
-0.01698342844380409,0.0,20.05422455086004,-16.98342844380409,113.59161376953125
0.003070796107055951,0.0
0.023125020657915992,0.0
0.043179245208776036,0.0
0.06323346975963608,0.0
0.08328769431049612,0.0
0.10334191886135616,0.0
0.12339614341221619,0.0
0.14345036796307625,0.0
0.16350459251393631,0.0
0.18355881706479632,0.0
0.20361304161565635,0.0
0.22366726616651642,0.0
0.24372149071737648,0.0
0.26377571526823645,0.0
0.28382993981909654,0.0
0.3038841643699566,0.0
0.3239383889208166,0.0
0.3439926134716767,0.0
0.3640468380225367,0.0
0.38410106257339677,0.0
0.4041552871242568,0.0
0.4242095116751168,0.0
0.44426373622597687,0.0
0.4643179607768369,0.04401733397453636
0.484372185327697,0.07923120115416545
0.504426409878557,0.10564160153888726
0.5244806344294171,0.36094213859119817
0.544534858980277,0.6338496092333236
0.5645890835311371,1.0212021482092435
0.5846433080819972,1.910352294494878
0.6046975326328572,2.3857395014198706
0.6247517571837172,3.274889647705505
0.6448059817345773,4.366519530274007
0.6648602062854374,5.704646483099912
0.6849144308362973,6.45294116066703
0.7049686553871575,8.468935056700795
0.7250228799380175,8.803466794907273
0.7450771044888774,9.1996228006781
0.7651313290397376,9.84227587670633
0.7851855535905976,10.722622556197058
0.8052397781414575,11.048350827608626
0.8252940026923177,11.470917233764176
0.8453482272431777,11.435703366584546
0.8654024517940377,12.280836178895644
0.8854566763448978,12.104766842997499
0.9055109008957578,11.911090573509538
0.925565125446618,11.602969235687784
0.9456193499974779,12.095963376202592
0.9656735745483379,11.541344968123433
0.985727799099198,12.183998044151664
1.005782023650058,10.96911962645446
1.0258362482009182,11.171599362737329
1.0458904727517782,11.321258298250752
1.065944697302638,11.382882565815102
1.0859989218534982,11.118778561967884
1.1060531464043581,11.171599362737329
1.1261073709552183,11.470917233764176
1.1461615955060784,11.215616696711864
1.1662158200569384,10.916298825685017
1.1862700446077983,11.409292966199825
1.2063242691586584,11.074761227993347
1.2263784937095186,10.837067624530851
1.2464327182603785,11.118778561967884
1.2664869428112386,10.731426022991965
1.2865411673620986,10.90749535889011
1.3065953919129585,10.660998288632706
1.3266496164638188,10.432108151965117
1.3467038410146788,11.7438247044063
1.3667580655655387,10.916298825685017
1.3868122901163988,10.93390575927483
1.4068665146672588,10.22962841568225
1.4269207392181191,10.898691892095203
1.446974963768979,10.863478024915574
1.467029188319839,11.03954736081372
1.4870834128706991,10.90749535889011
1.507137637421559,10.960316159659554
1.527191861972419,11.048350827608626
1.5472460865232793,10.379287351195673
1.5673003110741393,10.088772946963733
1.5873545356249992,10.55535668709382
1.6074087601758593,10.705015622607242
1.6274629847267192,10.757836423376686
1.6475172092775794,10.511339353119283
1.6675714338284395,11.030743894018812
1.6876256583792995,12.333656979665088
1.7076798829301594,13.839049801594232
1.7277341074810195,14.701789547495144
1.7477883320318794,14.604951412751165
1.7678425565827396,13.134772458001649
1.7878967811335997,12.272032712100737
1.8079510056844597,11.58536230209797
1.8280052302353196,10.81065722414613
1.8480594547861797,11.189206296327143
1.8681136793370399,11.629379636072507
1.8881679038879,10.872281491710481
1.90822212843876,11.092368161583163
1.9282763529896199,10.898691892095203
1.94833057754048,10.854674558120665
1.9683848020913401,11.224420163506771
1.9884390266422,10.467322019144746
2.00849325119306,10.722622556197058
2.02854747574392,10.115183347348456
2.04860170029478,10.502535886324376
2.06865592484564,10.634587888247985
2.0887101493965003,10.414501218375303
2.10876437394736,10.643391355042892
2.12881859849822,10.502535886324376
2.1488728230490803,10.590570554273448
2.16892704759994,10.440911618760024
2.1889812721508,10.493732419529469
2.2090354967016603,10.458518552349839
2.22908972125252,10.03595214619429
2.2491439458033806,10.13279028093827
2.2691981703542408,10.493732419529469
2.2892523949051005,10.027148679399383
2.3093066194559606,10.22962841568225
2.3293608440068208,10.141593747733177
2.3494150685576805,9.93911401145031
2.3694692931085406,10.405697751580396
2.3895235176594007,10.370483884400766
2.4095777422102604,10.053559079784105
2.4296319667611206,10.581767087478541
2.449686191311981,9.719027341577629
2.469740415862841,9.472530271320224
2.489794640413701,9.26124706824245
2.509848864964561,8.87389452926653
2.529903089515421,9.366888669781337
2.549957314066281,8.93551879683088
2.570011538617141,9.270050535037358
2.590065763168001,8.821073728497087
2.610119987718861,9.014749997985046
2.630174212269721,9.472530271320224
2.650228436820581,8.733039060548014
2.6702826613714414,8.882697996061438
2.6903368859223016,8.169617185673948
2.7103911104731613,8.592183591829498
2.7304453350240214,8.627397459009126
2.7504995595748816,8.574576658239684
2.7705537841257413,8.372096921956816
2.7906080086766014,7.975940916185988
2.8106622332274616,8.125599851699413
2.8307164577783213,7.940727049006359
2.8507706823291814,7.940727049006359
2.870824906880042,8.284062254007743
2.8908791314309017,7.298073972978129
2.910933355981762,7.80867504708275
2.930987580532622,8.19602758605867
2.9510418050834817,7.870299314647101
2.971096029634342,7.676623045159141
2.991150254185202,7.703033445543863
3.011204478736062,7.90551318182673
3.031258703286922,6.840293699642951
3.051312927837782,7.280467039388314
3.071367152388642,7.148415037464705
3.0914213769395023,7.210039305029055
3.1114756014903624,6.7874728988735065
3.1315298260412225,6.3649064927179575
3.1515840505920822,6.470548094256845
3.1716382751429424,6.435334227077216
3.1916924996938025,6.64661743015499
3.2117467242446622,6.39131689310268
3.2318009487955224,5.977553953742038
3.2518551733463825,5.951143553357316
3.2719093978972422,5.863108885408243
3.2919636224481024,6.3649064927179575
3.312017846998963,5.898322752587872
3.3320720715498227,5.704646483099912
3.352126296100683,5.38772167848325
3.372180520651543,5.58139794797121
3.3922347452024026,5.766270750664263
3.412288969753263,5.106010741046218
3.432343194304123,5.185241942200383
3.4523974188549826,5.044386473481866
3.472451643405843,5.158831541815661
3.492505867956703,4.692247801685576
3.5125600925075626,4.771479002839741
3.532614317058423,4.877120604378629
3.5526685416092834,4.480964598607802
3.572722766160143,4.1992536611707685
3.592776990711003,4.472161131812894
3.6128312152618633,4.551392332967059
3.632885439812723,4.252074461940213
3.652939664363583,4.023184325272624
3.6729938889144433,4.480964598607802
3.693048113465303,3.627028319501796
3.713102338016163,4.234467528350398
3.7331565625670238,3.8383115225795703
3.7532107871178835,3.9087392569388286
3.7732650116687436,3.6446352530916104
3.7933192362196038,3.820704588989756
3.8133734607704635,3.5125832511680013
3.8334276853213236,3.4861728507832797
3.8534819098721838,3.1604445793717106
3.873536134423044,3.0283925774481015
3.8935903589739036,3.230872313730969
3.9136445835247637,3.2484792473207835
3.933698808075624,3.239675780525876
3.953753032626484,3.0812133782175453
3.973807257177344,2.7378781732161617
3.9938614817282043,2.693860839241625
4.0139157062790645,2.729074706421254
4.033969930829924,2.359329101035149
4.054024155380784,3.010785643858287
4.0740783799316445,2.623433104882367
4.094132604482504,2.297704833470798
4.114186829033365,2.4737741693689435
4.1342410535842244,2.561808837318016
4.154295278135085,2.174456298342096
4.174349502685945,2.13043896436756
4.194403727236805,2.165652831547189
4.214457951787664,1.910352294494878
4.234512176338525,2.2096701655217252
4.254566400889384,1.9895834956490435
4.274620625440245,1.9279592280846924
4.294674849991106,1.875138427315249
4.314729074541965,1.910352294494878
4.334783299092826,1.9719765620592289
4.354837523643685,1.487785888339329
4.374891748194545,1.8047106929559906
4.394945972745405,1.8311210933407125
4.415000197296266,1.716676025006918
4.435054421847125,1.8311210933407125
4.455108646397986,2.0952250971879307
4.475162870948845,2.0247973628286724
4.495217095499705,2.0952250971879307
4.515271320050566,2.174456298342096
4.535325544601426,1.9895834956490435
4.555379769152286,2.042404296418487
4.575433993703146,1.5670170894934945
4.5954882182540056,1.5582136226985872
4.615542442804865,1.3997512203902562
4.635596667355726,1.4525720211596997
4.6556508919065855,1.5053928219291435
4.675705116457446,1.4173581539800708
4.695759341008307,1.2853061520564617
4.7158135655591655,1.0476125485939654
4.735867790110026,1.2148784176972036
4.755922014660886,1.1796645505175745
4.775976239211746,1.3117165524411836
4.796030463762606,1.0828264157735945
4.816084688313467,1.2765026852615544
4.8361389128643255,1.0123986814143362
4.856193137415186,1.2412888180819253
4.876247361966046,1.003595214619429
4.896301586516906,0.9859882810296144
4.916355811067767,1.2060749509022963
4.936410035618627,1.1268437497481307
4.956464260169486,1.2412888180819253
4.976518484720346,1.1092368161583162
4.996572709271207,0.8539362791060053
5.016626933822066,1.003595214619429
5.036681158372927,0.9243640134652635
5.056735382923787,0.8891501462856345
5.076789607474646,0.8979536130805418
5.096843832025506,0.8275258787212836
5.116898056576367,0.8891501462856345
5.136952281127227,1.038809081799058
5.157006505678087,0.8627397459009126
5.1770607302289475,0.9419709470550781
5.197114954779807,0.7923120115416544
5.217169179330667,0.8891501462856345
5.237223403881527,1.0300056150041508
5.257277628432387,0.7394912107722108
5.277331852983247,0.8363293455161909
5.2973860775341075,0.9595778806448926
5.317440302084967,0.9419709470550781
5.337494526635827,1.0123986814143362
5.3575487511866875,1.3205200192360909
5.377602975737547,1.3821442868004417
5.397657200288408,1.5846240230833089
5.4177114248392675,1.3029130856462763
5.437765649390128,1.2412888180819253
5.457819873940987,1.2500922848768325
5.4778740984918475,1.0476125485939654
5.497928323042707,0.8891501462856345
5.517982547593568,0.77470507795184
5.5380367721444275,0.77470507795184
5.558090996695288,0.6778669432078599
5.578145221246148,0.6866704100027672
5.5981994457970075,0.5810288084638799
5.618253670347868,0.7482946775671181
5.638307894898728,0.6778669432078599
5.658362119449588,0.6778669432078599
5.678416344000448,0.6778669432078599
5.698470568551308,0.5546184080791581
5.718524793102167,0.6778669432078599
5.738579017653028,0.5634218748740654
5.758633242203889,0.7306877439773035
5.778687466754748,0.7042773435925818
5.798741691305609,0.5986357420536945
5.818795915856468,0.5546184080791581
5.838850140407328,0.6250461424384163
5.858904364958188,0.6426530760282309
5.878958589509049,0.906757079875449
5.899012814059908,0.9155605466703562
5.919067038610769,0.906757079875449
5.939121263161628,0.7394912107722108
5.959175487712488,0.8891501462856345
5.979229712263349,0.6866704100027672
5.999283936814209,0.7042773435925818
6.019338161365069,0.6250461424384163
6.039392385915929,0.616242675643509
6.0594466104667895,0.5458149412842509
6.079500835017648,0.5986357420536945
6.099555059568509,0.6954738767976745
6.1196092841193686,0.5106010741046217
6.139663508670229,0.6778669432078599
6.159717733221089,0.4753872069249927
6.179771957771949,0.6514565428231381
6.199826182322809,0.6250461424384163
6.219880406873669,0.5370114744893436
6.239934631424529,0.5810288084638799
6.259988855975389,0.5370114744893436
6.28004308052625,1.0123986814143362
6.300097305077109,1.3293234860309981
6.320151529627969,1.7694968257763617
6.340205754178829,2.4825776361638505
6.360259978729689,3.134034178986989
6.380314203280549,3.688652587066147
6.40036842783141,3.979166991298087
6.42042265238227,3.5830109855272596
6.440476876933129,3.2572827141156906
6.46053110148399,2.922750975909214
6.480585326034849,1.8223176265458052
6.50063955058571,1.5318032223138653
6.52069377513657,0.7570981443620254
6.54074799968743,0.845132812311098
6.560802224238289,0.6426530760282309
6.58085644878915,0.5634218748740654
6.600910673340009,0.48419067371989993
6.62096489789087,0.5106010741046217
6.6410191224417305,0.5986357420536945
6.66107334699259,0.422566406155549
6.68112757154345,0.4665837401300854
6.70118179609431,0.5106010741046217
6.72123602064517,0.5986357420536945
6.74129024519603,0.3697456053861054
6.7613444697468905,0.4137629393606418
6.78139869429775,0.48419067371989993
6.80145291884861,0.4929941405148072
6.82150714339947,0.5458149412842509
6.84156136795033,0.4313698729504563
6.861615592501191,0.5986357420536945
6.8816698170520505,0.4137629393606418
6.901724041602911,0.5458149412842509
6.921778266153771,0.6074392088486018
6.9418324907046305,0.5458149412842509
6.96188671525549,0.5106010741046217
6.981940939806351,0.8011154783365617
7.0019951643572105,0.7659016111569327
7.022049388908071,1.0564160153888726
7.042103613458931,1.0564160153888726
7.0621578380097905,0.8363293455161909
7.082212062560651,0.9947917478245217
7.102266287111511,0.8627397459009126
7.122320511662371,0.845132812311098
7.142374736213231,0.6866704100027672
7.162428960764092,0.5810288084638799
7.1824831853149504,0.5106010741046217
7.202537409865811,0.4577802733351781
7.222591634416671,0.4401733397453636
7.242645858967531,0.5458149412842509
7.262700083518392,0.4401733397453636
7.282754308069252,0.4401733397453636
7.302808532620111,0.38735253897592
7.322862757170971,0.4929941405148072
7.342916981721832,0.36094213859119817
7.362971206272691,0.5546184080791581
7.383025430823552,0.422566406155549
7.403079655374412,0.4665837401300854
7.423133879925271,0.5546184080791581
7.443188104476131,0.5546184080791581
7.463242329026992,0.519404540899529
7.483296553577852,0.5986357420536945
7.503350778128712,0.6074392088486018
7.5234050026795725,0.616242675643509
7.543459227230431,0.5546184080791581
7.563513451781292,0.5458149412842509
7.583567676332152,0.616242675643509
7.603621900883012,0.5634218748740654
7.623676125433872,0.5898322752587872
7.643730349984732,0.5898322752587872
7.663784574535591,0.5370114744893436
7.683838799086452,0.4401733397453636
7.703893023637312,0.616242675643509
7.723947248188172,0.519404540899529
7.744001472739033,0.5810288084638799
7.764055697289892,0.7394912107722108
7.784109921840753,0.6426530760282309
7.804164146391612,0.7482946775671181
7.824218370942472,0.6866704100027672
7.844272595493332,0.9771848142347072
7.864326820044193,1.0123986814143362
7.884381044595052,0.7659016111569327
7.904435269145913,0.8627397459009126
7.924489493696773,1.0123986814143362
7.944543718247632,1.1708610837226672
7.964597942798493,1.1268437497481307
7.984652167349353,1.364537353210627
8.004706391900212,1.5053928219291435
8.024760616451072,1.5670170894934945
8.044814841001934,1.7606933589814544
8.064869065552793,1.5758205562884016
8.084923290103653,1.3469304196208125
8.104977514654513,1.2853061520564617
8.125031739205372,1.0740229489786872
8.145085963756234,0.8363293455161909
8.165140188307094,0.713080810387489
8.185194412857953,0.6074392088486018
8.205248637408813,0.519404540899529
8.225302861959673,0.4665837401300854
8.245357086510534,0.5282080076944363
8.265411311061392,0.5722253416689727
8.285465535612254,0.5282080076944363
8.305519760163113,0.5546184080791581
8.325573984713975,0.4401733397453636
8.345628209264834,0.4929941405148072
8.365682433815692,0.3081213378217545
8.385736658366554,0.4137629393606418
8.405790882917413,0.4929941405148072
8.425845107468275,0.4753872069249927
8.445899332019133,0.5282080076944363
8.465953556569993,0.5458149412842509
8.486007781120854,0.519404540899529
8.506062005671714,0.5106010741046217
8.526116230222573,0.5722253416689727
8.546170454773433,0.5282080076944363
8.566224679324295,0.6426530760282309
8.586278903875154,0.5810288084638799
8.606333128426014,0.8011154783365617
8.626387352976874,0.6074392088486018
8.646441577527733,0.6954738767976745
8.666495802078595,0.6866704100027672
8.686550026629455,0.6074392088486018
8.706604251180313,0.5898322752587872
8.726658475731174,0.5722253416689727
8.746712700282034,0.4753872069249927
8.766766924832895,0.4489768065402709
8.786821149383755,0.48419067371989993
8.806875373934615,0.5017976073097145
8.826929598485474,0.5986357420536945
8.846983823036334,0.6778669432078599
8.867038047587195,0.6602600096180454
8.887092272138053,0.7218842771823963
8.907146496688915,0.7482946775671181
8.927200721239775,0.8187224119263763
8.947254945790636,0.7923120115416544
8.967309170341494,0.5898322752587872
8.987363394892354,0.6514565428231381
9.007417619443215,0.6602600096180454
9.027471843994075,0.3785490721810127
9.047526068544936,0.4577802733351781
9.067580293095794,0.4049594725657345
9.087634517646654,0.38735253897592
9.107688742197515,0.5282080076944363
9.127742966748375,0.5017976073097145
9.147797191299235,0.4665837401300854
9.167851415850095,0.36094213859119817
9.187905640400956,0.4137629393606418
9.207959864951816,0.4753872069249927
9.228014089502675,0.48419067371989993
9.248068314053535,0.48419067371989993
9.268122538604395,0.7482946775671181
9.288176763155256,0.5722253416689727
9.308230987706116,0.4137629393606418
9.328285212256974,0.4401733397453636
9.348339436807835,0.4313698729504563
9.368393661358695,0.5282080076944363
9.388447885909557,0.4929941405148072
9.408502110460416,0.5986357420536945
9.428556335011276,0.3961560057708272
9.448610559562136,0.4577802733351781
9.468664784112995,0.38735253897592
9.488719008663857,0.5106010741046217
9.508773233214715,0.3961560057708272
9.528827457765576,0.4313698729504563
9.548881682316436,0.3961560057708272
9.568935906867297,0.4665837401300854
9.588990131418155,0.4489768065402709
9.609044355969015,0.4401733397453636
9.629098580519877,0.4929941405148072
9.649152805070736,0.519404540899529
9.669207029621598,0.519404540899529
9.689261254172456,0.5370114744893436
9.709315478723315,0.5106010741046217
9.729369703274177,0.5458149412842509
9.749423927825037,0.3961560057708272
9.769478152375896,0.4753872069249927
9.789532376926756,0.4665837401300854
9.809586601477617,0.3785490721810127
9.829640826028477,0.4577802733351781
9.849695050579337,0.3433352050013836
9.869749275130197,0.4313698729504563
9.889803499681056,0.422566406155549
9.909857724231918,0.38735253897592
9.929911948782777,0.4489768065402709
9.949966173333635,0.4401733397453636
9.970020397884497,0.4753872069249927
9.990074622435356,0.4137629393606418
10.010128846986218,0.3521386717962909
10.030183071537076,0.3081213378217545
10.050237296087937,0.3785490721810127
10.070291520638797,0.38735253897592
10.090345745189657,0.3169248046166618
10.110399969740518,0.29931787102684726
10.130454194291376,0.4313698729504563
10.150508418842238,0.3521386717962909
10.170562643393097,0.3697456053861054
10.190616867943957,0.3081213378217545
10.210671092494817,0.4137629393606418
10.230725317045676,0.3521386717962909
10.250779541596538,0.4049594725657345
10.270833766147398,0.422566406155549
10.290887990698259,0.4753872069249927
10.310942215249117,0.4313698729504563
10.330996439799977,0.3697456053861054
10.351050664350838,0.4401733397453636
10.371104888901698,0.3169248046166618
10.391159113452558,0.3521386717962909
10.411213338003417,0.3961560057708272
10.431267562554279,0.3697456053861054
10.451321787105138,0.4577802733351781
10.471376011655998,0.4313698729504563
10.491430236206858,0.4401733397453636
10.511484460757718,0.5017976073097145
10.531538685308579,0.4489768065402709
10.551592909859439,0.4489768065402709
10.571647134410297,0.36094213859119817
10.591701358961158,0.3697456053861054
10.611755583512018,0.422566406155549
10.63180980806288,0.5106010741046217
10.651864032613737,0.3521386717962909
10.671918257164599,0.5106010741046217
10.691972481715458,0.4313698729504563
10.712026706266318,0.4049594725657345
10.73208093081718,0.4137629393606418
10.752135155368038,0.3961560057708272
10.772189379918899,0.4665837401300854
10.792243604469759,0.4489768065402709
10.812297829020618,0.5546184080791581
10.832352053571478,0.422566406155549
10.852406278122338,0.48419067371989993
10.8724605026732,0.3345317382064763
10.892514727224059,0.4049594725657345
10.91256895177492,0.5986357420536945
