Energy (keV),Intensity (cps),slope,offset,liveTime
-0.017217458956643884,0.0,20.05594293969134,-17.217458956643885,49.71159744262695
0.002838483983047457,0.0
0.022894426922738798,0.0
0.042950369862430136,0.0
0.06300631280212149,0.0
0.08306225574181282,0.0
0.10311819868150417,0.0
0.12317414162119551,0.0
0.14323008456088684,0.0
0.16328602750057816,0.0
0.1833419704402695,0.0
0.20339791337996088,0.0
0.2234538563196522,0.0
0.24350979925934355,0.0
0.2635657421990349,0.0
0.2836216851387262,0.0
0.3036776280784176,0.0
0.32373357101810896,0.0
0.3437895139578002,0.0
0.3638454568974916,0.0
0.3839013998371829,0.0
0.4039573427768743,0.0
0.42401328571656566,0.0
0.4440692286562569,0.0
0.4641251715959483,0.060348090874817566
0.48418111453563967,0.2212763332076644
0.504237057475331,0.563248848164964
0.5242930004150224,0.985685484288687
0.5443489433547137,2.1524152412018265
0.5644048862944051,3.1783327860737254
0.5844608292340963,4.727267118527376
0.6045167721737876,7.623975480518619
0.624572715113479,9.796506752012052
0.6446286580531704,13.699016628583587
0.6646846009928618,16.133056293867895
0.684740543932553,20.357422655105125
0.7047964868722444,24.481208864884326
0.7248524298119358,26.915248530168636
0.7449083727516271,29.490100407494186
0.7649643156913185,31.74309580015404
0.7850202586310097,34.03632325339711
0.805076201570701,34.78061637418652
0.8251321445103924,35.42432934351791
0.8451880874500838,35.54502552526755
0.8652440303897752,37.536512524136526
0.8852999733294665,37.97906519055186
0.9053559162691578,38.05952931171828
0.9254118592088492,37.958949160260254
0.9454678021485405,37.818136948219006
0.9655237450882319,38.039413281426675
0.9855796880279232,36.55082703984784
1.0056356309676144,37.85836900880222
1.0256915739073058,36.51059497926463
1.0457475168469974,37.85836900880222
1.0658034597866886,38.05952931171828
1.0858594027263797,36.973263675971566
1.1059153456660713,35.48467743439273
1.1259712886057625,36.51059497926463
1.146027231545454,36.28931864605696
1.1660831744851452,36.0680423128493
1.1861391174248366,35.48467743439273
1.206195060364528,33.91562707164747
1.2262510033042193,34.05643928368872
1.2463069462439107,35.26340110118507
1.266362889183602,34.13690340485514
1.2864188321232932,35.42432934351791
1.3064747750629846,35.62548964643397
1.326530718002676,34.3380637077712
1.3465866609423673,33.61388661727339
1.3666426038820587,34.398411798646016
1.3866985468217499,33.33226219319091
1.4067544897614415,34.21736752602156
1.4268104327011326,36.18873849459894
1.4468663756408242,33.21156601144127
1.4669223185805154,35.22316904060185
1.4869782615202065,36.61117513072266
1.507034204459898,33.73458279902302
1.5270901473995893,33.47307440523215
1.5471460903392809,32.50750495123506
1.567202033278972,33.77481485960623
1.5872579762186634,32.26611258773579
1.6073139191583548,31.9442561030701
1.6273698620980461,32.20576449686097
1.6474258050377375,31.66263167898762
1.6674817479774289,34.237483556313165
1.6875376909171202,39.72915982592156
1.7075936338568114,42.70633230907923
1.7276495767965028,44.21503458094967
1.7477055197361941,45.66338876194529
1.7677614626758855,42.70633230907923
1.787817405615577,35.92723010080806
1.8078733485552683,33.07075379940003
1.8279292914949594,32.08506831511134
1.847985234434651,31.05915077023944
1.8680411773743422,33.73458279902302
1.8880971203140335,32.447156860360245
1.908153063253725,32.6483171632763
1.928209006193416,32.50750495123506
1.9482649491331077,34.458759889520834
1.9683208920727988,32.46727289065185
1.9883768350124904,31.924140072778492
2.008432777952182,32.2862286180274
2.0284887208918727,30.757410315865354
2.0485446638315645,30.113697346533968
2.0686006067712555,28.564763014080317
2.088656549710947,28.64522713524674
2.1087124926506386,30.113697346533968
2.1287684355903296,30.254509558575208
2.148824378530021,29.671144680118637
2.1688803214697123,29.771724831576666
2.1889362644094037,28.745807286704768
2.208992207349095,28.604995074663528
2.2290481502887864,28.54464698378871
2.249104093228478,28.765923316996375
2.269160036168169,29.832072922451484
2.28921597910786,31.22007901257229
2.309271922047552,30.576366043240903
2.3293278649872433,29.067663771370462
2.3493838079269342,29.1883599531201
2.3694397508666256,28.906735529037615
2.389495693806317,27.156640893667905
2.409551636746009,27.57907752979163
2.4296075796856997,26.59339204550294
2.449663522625391,27.639425620666447
2.4697194655650825,27.458381348041993
2.4897754085047734,26.01002716704637
2.5098313514444652,26.573276015211334
2.5298872943841566,27.840585923582506
2.549943237323848,25.426662288589803
2.569999180263539,27.116408833084694
2.5900551232032303,24.883529470716443
2.610111066142922,26.573276015211334
2.6301670090826135,24.481208864884326
2.6502229520223044,25.165153894798927
2.6702788949619958,25.86921495500513
2.690334837901687,23.696683683511697
2.7103907808413785,23.958192077302574
2.73044672378107,26.030143197337978
2.7505026667207613,24.601905046633963
2.7705586096604526,25.04445771304929
2.7906145526001436,23.857611925844544
2.8106704955398354,23.757031774386515
2.8307264384795268,22.831694380972646
2.850782381419218,23.173666895929948
2.870838324358909,23.314479107971188
2.8908942672986004,25.507126409756225
2.9109502102382923,25.86921495500513
2.931006153177983,26.51292792433652
2.9510620961176746,27.196872954251116
2.971118039057366,28.182558438539804
2.9911739819970573,26.714088227252578
3.0112299249367487,26.170955409379218
3.03128586787644,24.501324895175934
3.0513418108161314,22.590302017473377
3.0713977537558224,22.24832950251608
3.0914536966955137,22.791462320389435
3.1115096396352055,23.475407350304035
3.131565582574897,22.851810411264253
3.151621525514588,23.515639410887246
3.1716774684542792,24.058772228760603
3.1917334113939706,25.82898289442192
3.2117893543336624,29.530332468077397
3.2318452972733533,36.79221940334711
3.2519012402130447,49.94810321405734
3.271957183152736,68.65601138525079
3.2920131260924275,84.92987989115993
3.312069069032119,92.59408743226176
3.33212501197181,87.84670428344278
3.3521809549115016,71.41190753520078
3.3722368978511925,52.14075051584238
3.3922928407908843,37.93883312996864
3.4123487837305757,27.398033257167175
3.432404726670267,22.791462320389435
3.452460669609958,20.71951120035403
3.4725166125496494,20.236726473355493
3.492572555489341,20.57869898831279
3.512628498429032,21.765544775517537
3.5326844413687235,25.507126409756225
3.552740384308415,29.490100407494186
3.5727963272481063,38.461849917550396
3.5928522701877976,52.46260700050807
3.612908213127489,77.40648456209934
3.6329641560671804,117.23622453947893
3.6530200990068717,157.16654466831656
3.6730760419465627,193.85818392020565
3.6931319848862545,206.77267536741658
3.713187927825946,185.97270004589615
3.733243870765637,142.36114637369465
3.753299813705328,96.71787364204096
3.7733557566450195,60.87110766239932
3.7934116995847114,35.806533919058424
3.8134676425244023,23.415059259429217
3.8335235854640937,19.61312953431571
3.853579528403785,17.219321929614612
3.873635471343476,17.13885780844819
3.893691414283168,18.34581962594454
3.913747357222859,21.40345623026863
3.9338033001625505,23.29436307767958
3.9538592431022415,30.455669861491266
3.973915186041933,37.57674458471974
3.9939711289816247,41.962039188289815
4.014027071921316,42.967840702870106
4.034083014861007,40.5338010375858
4.054138957800698,35.08235682856061
4.074194900740389,28.745807286704768
4.094250843680081,22.449489805432137
4.114306786619773,16.25375247561753
4.134362729559464,16.012360112118262
4.154418672499155,14.18180135558213
4.174474615438847,14.061105173832493
4.1945305583785375,13.719132658875195
4.214586501318229,13.497856325667529
4.234642444257921,12.95472350779417
4.254698387197612,13.236347931876653
4.274754330137304,13.216231901585047
4.294810273076994,11.60694947825658
4.314866216016686,12.451822750504025
4.334922158956378,11.425905205632127
4.3549781018960685,12.210430387004754
4.37503404483576,12.290894508171178
4.395089987775451,12.371358629337601
4.415145930715143,13.719132658875195
4.435201873654834,14.845630355205122
4.455257816594525,16.917581475240524
4.475313759534217,17.561294444571914
4.495369702473908,18.406167716819358
4.5154256454135995,18.14465932302848
4.535481588353291,18.667676110610234
4.555537531292982,17.460714293113885
4.575593474232673,16.515260869408408
4.595649417172364,17.31990208107264
4.615705360112056,18.265355504778118
4.635761303051748,17.96361505040403
4.655817245991439,19.5728974737325
4.6758731889311305,17.782570777779576
4.695929131870821,15.710619657744173
4.715985074810512,13.88006090120804
4.736041017750204,12.994955568377383
4.756096960689895,11.566717417673367
4.776152903629587,10.902888418050374
4.796208846569278,10.943120478633587
4.81626478950897,11.60694947825658
4.8363207324486615,12.311010538462783
4.856376675388352,12.33112656875439
4.876432618328043,11.888573902339061
4.896488561267734,11.446021235923732
4.916544504207426,10.802308266592345
4.936600447147118,9.876970873178475
4.956656390086809,11.043700630091616
4.976712333026501,10.218943388135775
4.9967682759661916,9.635578509679204
5.0168242189058825,8.951633479764606
5.036880161845574,8.971749510056211
5.056936104785265,9.092445691805848
5.076992047724957,7.805019753143072
5.097047990664648,8.851053328306577
5.11710393360434,8.971749510056211
5.137159876544032,8.871169358598182
5.157215819483722,9.07232966151424
5.1772717624234135,7.945831965184313
5.197327705363104,8.34815257101643
5.217383648302796,8.810821267723364
5.237439591242488,9.17290981297227
5.257495534182179,8.609660964807306
5.277551477121871,9.494766297637964
5.297607420061561,9.474650267346359
5.317663363001253,10.601147963676286
5.3377193059409445,10.078131176094534
5.357775248880635,9.937318964053294
5.377831191820327,9.394186146179935
5.397887134760018,10.259175448718986
5.41794307769971,10.762076206009134
5.437999020639402,9.917202933761686
5.458054963579092,8.911401419181395
5.478110906518784,8.69012508597373
5.498166849458475,7.221654874686502
5.518222792398166,6.879682359729203
5.538278735337858,6.175621299522998
5.558334678277549,6.738870147687962
5.578390621217241,6.94003045060402
5.598446564156931,6.497477784188692
5.618502507096623,6.296317481272633
5.638558450036315,6.45724572360548
5.6586143929760055,6.336549541855844
5.678670335915697,5.552024360483216
5.698726278855388,5.833648784565698
5.71878222179508,7.121074723228473
5.738838164734771,7.9257159348927075
5.758894107674462,11.26497696329928
5.778950050614154,16.293984536200742
5.799005993553845,23.817379865261334
5.8190619364935365,36.953147645679955
5.839117879433228,55.54035963512377
5.859173822372919,68.55543123379276
5.87922976531261,80.14226468175774
5.899285708252301,83.4815257101643
5.919341651191993,77.32602044093291
5.939397594131685,63.62700381234932
5.959453537071376,48.66067727539457
5.9795094800110675,33.49319043552375
5.9995654229507585,21.886240957267173
6.01962136589045,14.201917385873735
6.039677308830141,10.540799872801468
6.059733251769832,8.287804480141613
6.079789194709524,7.28200296556132
6.099845137649215,8.187224328683584
6.119901080588907,8.20734035897519
6.1399570235285985,8.5895449345157
6.160012966468289,9.977551024636504
6.18006890940798,12.109850235546725
6.200124852347671,18.667676110610234
6.220180795287363,32.950057617650394
6.240236738227055,67.34846941629641
6.260292681166746,144.37274940285522
6.280348624106438,288.8661949874601
6.300404567046129,535.2875660596318
6.3204605099858195,882.8121053774146
6.340516452925511,1310.6398376192878
6.360572395865202,1735.8122538626694
6.380628338804894,2057.3066499831143
6.400684281744585,2183.011723275359
6.420740224684277,2058.835468285276
6.440796167623969,1733.3379821368019
6.460852110563659,1305.0676972285132
6.4809080535033505,875.9123069873938
6.500963996443042,538.2043904519147
6.521019939382733,290.6967537439962
6.541075882322425,145.19750664481106
6.561131825262116,70.32564189945407
6.581187768201808,34.78061637418652
6.6012437111415,17.96361505040403
6.62129965408119,12.673099083711689
6.6413555970208815,10.480451781926652
6.6614115399605724,8.44873272247446
6.681467482900264,8.730357146556942
6.701523425839956,8.609660964807306
6.721579368779647,8.629776995098913
6.741635311719339,8.368268601308037
6.761691254659029,8.126876237808766
6.781747197598721,9.977551024636504
6.8018031405384125,9.353954085596722
6.821859083478103,11.063816660383221
6.841915026417795,12.290894508171178
6.861970969357486,16.515260869408408
6.882026912297178,22.690882168931406
6.902082855236869,33.83516295048105
6.92213879817656,50.53146809251391
6.942194741116252,84.38674707328657
6.962250684055943,130.31164422902273
6.982306626995634,192.97307858737497
7.002362569935326,259.61748694346517
7.022418512875017,316.8073610625006
7.042474455814709,363.1949269149437
7.062530398754399,369.43089630534155
7.082586341694091,337.7079165354791
7.102642284633783,282.7911538393951
7.122698227573474,209.1664829721177
7.142754170513165,140.8926761624074
7.162810113452856,88.55076534364898
7.182866056392548,49.24404215385113
7.202921999332239,28.886619498746008
7.22297794227193,15.066906688412786
7.243033885211622,8.710241116265335
7.263089828151313,5.773300693690881
7.283145771091005,4.083554149195988
7.303201714030696,4.1439022400708065
7.323257656970387,3.2789129375317545
7.343313599910078,3.600769422197448
7.363369542849769,4.003090028029566
7.383425485789461,4.1237862097792
7.403481428729153,4.244482391528836
7.423537371668844,5.330748027275552
7.443593314608536,4.827847269985406
7.4636492575482265,4.747383148818982
7.483705200487917,3.88239384627993
7.503761143427609,3.942741937154748
7.5238170863673,4.103670179487595
7.543873029306992,3.4599572101562073
7.563928972246683,3.3794930889897836
7.583984915186375,3.1783327860737254
7.604040858126067,3.2990289678233604
7.6240968010657575,3.5404213313226305
7.644152744005448,3.0375205740324844
7.664208686945139,3.1783327860737254
7.684264629884831,3.3191449981149663
7.704320572824523,3.620885452489054
7.724376515764214,3.5806533919058423
7.744432458703906,3.1582167557821195
7.764488401643597,3.5404213313226305
7.784544344583288,3.3794930889897836
7.804600287522979,4.505990785319712
7.82465623046267,4.103670179487595
7.844712173402362,4.22436636123723
7.864768116342053,4.184134300654018
7.884824059281745,4.606570936777741
7.904880002221437,4.164018270362412
7.924935945161127,4.8077312396937995
7.944991888100819,5.350864057567158
7.9650478310405095,5.833648784565698
7.985103773980201,6.21585336010621
8.005159716919893,6.517593814480297
8.025215659859583,7.563627389643802
8.045271602799275,6.960146480895626
8.065327545738967,7.181422814103291
8.085383488678659,7.04061060206205
8.10543943161835,6.014693057190151
8.12549537455804,4.827847269985406
8.145551317497732,3.781813694821901
8.165607260437422,3.9829739977379597
8.185663203377114,3.600769422197448
8.205719146316806,3.2587969072401486
8.225775089256498,2.81624424082482
8.24583103219619,3.0978686649073017
8.26588697513588,2.494387756159126
8.285942918075573,2.8363602711164257
8.305998861015263,3.0978686649073017
8.326054803954953,2.695548059075185
8.346110746894645,3.1984488163653313
8.366166689834337,3.4599572101562073
8.386222632774029,3.4197251495729954
8.406278575713719,3.4398411798646014
8.426334518653412,3.741581634238689
8.446390461593102,4.264598421820441
8.466446404532793,5.833648784565698
8.486502347472486,6.618173965938326
8.506558290412176,10.33963956988541
8.526614233351868,15.931895990951839
8.546670176291558,22.067285229891624
8.566726119231252,29.46998437720258
8.586782062170942,35.64560567672558
8.606838005110632,42.08273537003945
8.626893948050325,44.396078853574124
8.646949890990015,43.08853688461974
8.667005833929707,40.71484531021025
8.687061776869399,33.41272631435733
8.70711771980909,25.949679076171556
8.72717366274878,19.06999671644235
8.74722960568847,12.009270084088696
8.767285548628164,9.41430217647154
8.787341491567854,6.115273208648181
8.807397434507546,5.089355663776281
8.827453377447238,4.4657587247365
8.84750932038693,3.9829739977379597
8.86756526332662,4.083554149195988
8.887621206266312,4.345062542986865
8.907677149206004,4.043322088612777
8.927733092145694,4.023206058321171
8.947789035085385,3.681233543363872
8.967844978025077,3.3996091192813895
8.98790092096477,3.1984488163653313
9.00795686390446,3.520305301031025
9.028012806844151,2.796128210533214
9.048068749783843,2.514503786450732
9.068124692723533,2.81624424082482
9.088180635663226,3.2990289678233604
9.108236578602916,3.9829739977379597
9.128292521542608,3.862277815988324
9.148348464482298,5.813532754274092
9.16840440742199,6.5377098447719035
9.188460350361682,7.362467086727744
9.208516293301372,8.146992268100371
9.228572236241066,9.132677752389059
9.248628179180756,8.750473176848548
9.268684122120447,8.34815257101643
9.28874006506014,8.026296086350737
9.30879600799983,7.402699147310955
9.328851950939521,5.572140390774822
9.348907893879211,4.4657587247365
9.368963836818905,3.9829739977379597
9.389019779758595,3.500189270739419
9.409075722698287,3.3191449981149663
9.429131665637978,3.1783327860737254
9.44918760857767,3.9829739977379597
9.46924355151736,5.169819784942705
9.489299494457052,6.115273208648181
9.509355437396744,7.141190753520079
9.529411380336434,8.69012508597373
9.549467323276126,8.951633479764606
9.569523266215818,9.454534237054752
9.58957920915551,8.891285388889788
9.6096351520952,9.333838055305117
9.629691095034891,7.28200296556132
9.649747037974583,6.356665572147451
9.669802980914273,4.687035057944165
9.689858923853967,4.043322088612777
9.709914866793657,4.063438118904383
9.729970809733349,2.8363602711164257
9.750026752673039,2.7357801196583966
9.77008269561273,2.8363602711164257
9.790138638552422,2.7156640893667907
9.810194581492112,2.514503786450732
9.830250524431806,2.47427172586752
9.850306467371496,2.5949679076171552
9.870362410311188,2.092067150327009
9.89041835325088,2.916824392282849
9.91047429619057,2.494387756159126
9.930530239130261,2.212763332076644
9.950586182069951,2.0317190594521914
9.970642125009645,2.373691574409491
9.990698067949335,2.4340396652843084
10.010754010889027,2.7156640893667907
10.030809953828719,2.252995392659856
10.050865896768409,2.252995392659856
10.0709218397081,2.534619816742338
10.090977782647792,2.7357801196583966
10.111033725587484,2.3334595138262793
10.131089668527174,2.5748518773255498
10.151145611466866,2.4340396652843084
10.171201554406558,2.3334595138262793
10.191257497346248,2.695548059075185
10.21131344028594,3.2990289678233604
10.231369383225632,3.3392610284065722
10.251425326165323,3.500189270739419
10.271481269105013,3.781813694821901
10.291537212044707,3.801929725113507
10.311593154984397,3.5404213313226305
10.331649097924087,3.4599572101562073
10.35170504086378,4.445642694444894
10.37176098380347,4.687035057944165
10.391816926743163,6.45724572360548
10.411872869682853,7.704439601685043
10.431928812622546,10.33963956988541
10.451984755562236,13.276579992459865
10.472040698501926,16.55549292999162
10.49209664144162,19.914869988689798
10.51215258438131,21.886240957267173
10.532208527321002,23.757031774386515
10.552264470260694,25.00422565246608
10.572320413200385,23.555871471470457
10.592376356140075,20.33730662481352
10.612432299079767,16.917581475240524
10.632488242019459,14.946210506663151
10.65254418495915,10.661496054551105
10.672600127898841,7.644091510810226
10.692656070838533,6.155505269231392
10.712712013778225,4.425526664153288
10.732767956717915,3.1381007254905136
10.752823899657608,2.9972885134492726
10.772879842597298,2.936940422574455
10.792935785536988,2.796128210533214
10.81299172847668,2.776012180241608
10.833047671416372,2.81624424082482
10.853103614356064,2.776012180241608
10.873159557295754,2.615083937908761
10.893215500235447,3.0375205740324844
10.913271443175137,2.5748518773255498
10.933327386114827,2.8967083619912435
10.953383329054521,3.4197251495729954
10.973439271994211,4.083554149195988
10.993495214933903,4.2847144521120475
11.013551157873593,5.008891542609859
