Energy (keV),Intensity (cps),slope,offset,liveTime
-0.01698342844380409,0.0,20.05422455086004,-16.98342844380409,116.14022827148438
0.003070796107055951,0.0
0.023125020657915992,0.0
0.043179245208776036,0.0
0.06323346975963608,0.0
0.08328769431049612,0.0
0.10334191886135616,0.0
0.12339614341221619,0.0
0.14345036796307625,0.0
0.16350459251393631,0.0
0.18355881706479632,0.0
0.20361304161565635,0.0
0.22366726616651642,0.0
0.24372149071737648,0.0
0.26377571526823645,0.0
0.28382993981909654,0.0
0.3038841643699566,0.0
0.3239383889208166,0.0
0.3439926134716767,0.0
0.3640468380225367,0.0
0.38410106257339677,0.0
0.4041552871242568,0.0
0.4242095116751168,0.0
0.44426373622597687,0.00861028099292558
0.4643179607768369,0.00861028099292558
0.484372185327697,0.01722056198585116
0.504426409878557,0.06027196695047906
0.5244806344294171,0.18942618184436277
0.544534858980277,0.3960729256745767
0.5645890835311371,0.6371607934764929
0.5846433080819972,0.7663150083703766
0.6046975326328572,1.4379169258185718
0.6247517571837172,1.8426001324860741
0.6448059817345773,2.522812330927195
0.6648602062854374,3.0394291905027297
0.6849144308362973,3.547435769085339
0.7049686553871575,4.391243306392046
0.7250228799380175,5.0800657858260925
0.7450771044888774,5.70861629830966
0.7651313290397376,6.1391303479559385
0.7851855535905976,6.147740628948864
0.8052397781414575,6.319946248807375
0.8252940026923177,6.750460298453655
0.8453482272431777,7.034599571220199
0.8654024517940377,6.862393951361687
0.8854566763448978,6.776291141432432
0.9055109008957578,6.845173389375836
0.925565125446618,7.0776509761848265
0.9456193499974779,6.939886480298018
0.9656735745483379,7.025989290227273
0.985727799099198,6.776291141432432
1.005782023650058,6.836563108382911
1.0258362482009182,7.146533224128231
1.0458904727517782,6.672967769517324
1.065944697302638,7.120702381149455
1.0859989218534982,6.500762149658813
1.1060531464043581,7.025989290227273
1.1261073709552183,6.767680860439506
1.1461615955060784,6.68157805051025
1.1662158200569384,6.337166810793227
1.1862700446077983,6.629916364552696
1.2063242691586584,6.268284562849822
1.2263784937095186,6.664357488524399
1.2464327182603785,6.242453719871046
1.2664869428112386,6.225233157885194
1.2865411673620986,6.009976133062055
1.3065953919129585,6.845173389375836
1.3266496164638188,6.457710744694185
1.3467038410146788,6.595475240580995
1.3667580655655387,6.827952827389985
1.3868122901163988,6.070248100012534
1.4068665146672588,5.949704166111576
1.4269207392181191,6.319946248807375
1.446974963768979,6.509372430651738
1.467029188319839,6.845173389375836
1.4870834128706991,6.647136926538548
1.507137637421559,5.86360135618232
1.527191861972419,6.1391303479559385
1.5472460865232793,6.1391303479559385
1.5673003110741393,6.121909785970088
1.5873545356249992,6.3113359678144505
1.6074087601758593,6.276894843842748
1.6274629847267192,6.225233157885194
1.6475172092775794,6.225233157885194
1.6675714338284395,6.879614513347539
1.6876256583792995,8.265869753208557
1.7076798829301594,9.169949257465742
1.7277341074810195,9.79849976994931
1.7477883320318794,9.910433422857343
1.7678425565827396,8.730824926826537
1.7878967811335997,7.809524860583501
1.8079510056844597,7.42206221590185
1.8280052302353196,6.716019174481953
1.8480594547861797,6.569644397602217
1.8681136793370399,6.802121984411208
1.8881679038879,6.853783670368761
1.90822212843876,6.586864959588069
1.9282763529896199,6.242453719871046
1.94833057754048,6.3716079347649295
1.9683848020913401,6.552423835616366
1.9884390266422,6.1391303479559385
2.00849325119306,6.716019174481953
2.02854747574392,6.474931306680036
2.04860170029478,6.09607894299131
2.06865592484564,5.588072364408702
2.0887101493965003,6.09607894299131
2.10876437394736,5.880821918168171
2.12881859849822,6.276894843842748
2.1488728230490803,6.414659339729557
2.16892704759994,6.285505124835673
2.1889812721508,6.147740628948864
2.2090354967016603,6.061637819019609
2.22908972125252,6.354387372779078
2.2491439458033806,6.38882849675078
2.2691981703542408,6.1391303479559385
2.2892523949051005,6.423269620722483
2.3093066194559606,5.889432199161097
2.3293608440068208,6.09607894299131
2.3494150685576805,6.035806976040831
2.3694692931085406,6.15635090994179
2.3895235176594007,6.3113359678144505
2.4095777422102604,6.319946248807375
2.4296319667611206,5.768888265260139
2.449686191311981,5.9066527611469475
2.469740415862841,6.414659339729557
2.489794640413701,5.519190116465297
2.509848864964561,5.854991075189394
2.529903089515421,5.674175174337957
2.549957314066281,5.450307868521892
2.570011538617141,5.631123769373329
2.590065763168001,5.854991075189394
2.610119987718861,5.872211637175246
2.630174212269721,5.49335927348652
2.650228436820581,5.527800397458222
2.6702826613714414,5.803329389231841
2.6903368859223016,6.3113359678144505
2.7103911104731613,6.776291141432432
2.7304453350240214,7.301518282000892
2.7504995595748816,7.990340761434938
2.7705537841257413,7.5512164307957335
2.7906080086766014,7.3101285629938175
2.8106622332274616,6.466321025687111
2.8307164577783213,5.889432199161097
2.8507706823291814,5.536410678451148
2.870824906880042,5.131727471783646
2.8908791314309017,4.942301289939283
2.910933355981762,5.002573256889762
2.930987580532622,5.390035901571413
2.9510418050834817,5.4330873065360406
2.971096029634342,5.037014380861464
2.991150254185202,5.097286347811943
3.011204478736062,5.295322810649232
3.031258703286922,4.649551736179813
3.051312927837782,4.503176959300078
3.071367152388642,4.4945666783071525
3.0914213769395023,4.451515273342525
3.1114756014903624,4.451515273342525
3.1315298260412225,4.503176959300078
3.1515840505920822,4.59789005022226
3.1716382751429424,4.968132132918059
3.1916924996938025,4.623720893201036
3.2117467242446622,4.262089091498162
3.2318009487955224,4.692603141144441
3.2518551733463825,3.9004572897952876
3.2719093978972422,4.012390942703321
3.2919636224481024,4.107104033625502
3.312017846998963,3.7196413889438507
3.3320720715498227,3.5388254880924133
3.352126296100683,3.530215207099488
3.372180520651543,3.952118975752841
3.3922347452024026,3.771303074901404
3.412288969753263,3.805744198873106
3.432343194304123,3.4182815541914553
3.4523974188549826,3.444112397170232
3.472451643405843,3.3063479012834227
3.492505867956703,3.4182815541914553
3.5125600925075626,3.3493993062480505
3.532614317058423,3.134142281424911
3.5526685416092834,3.1513628434107623
3.572722766160143,3.2460759343329437
3.592776990711003,2.927495537594697
3.6128312152618633,2.9533263805734737
3.632885439812723,2.9533263805734737
3.652939664363583,2.8413927276654416
3.6729938889144433,2.8930544136229948
3.693048113465303,2.936105818587623
3.713102338016163,2.6691871078069296
3.7331565625670238,2.970546942559325
3.7532107871178835,2.660576826814004
3.7732650116687436,2.703628231778632
3.7933192362196038,2.927495537594697
3.8133734607704635,2.686407669792781
3.8334276853213236,2.3678272730545347
3.8534819098721838,2.514202049934269
3.873536134423044,2.255893620146502
3.8935903589739036,2.3247758680899064
3.9136445835247637,2.37643755404746
3.933698808075624,2.2645039011394275
3.953753032626484,2.359216992061609
3.973807257177344,2.109518843266767
3.9938614817282043,2.049246876316288
4.0139157062790645,1.6273431076629346
4.033969930829924,2.0664674383021393
4.054024155380784,1.8942618184436275
4.0740783799316445,1.9373132234082555
4.094132604482504,1.6790047936204882
4.114186829033365,1.765107603549744
4.1342410535842244,1.7306664795780415
4.154295278135085,1.8598206944719253
4.174349502685945,1.868430975464851
4.194403727236805,1.7306664795780415
4.214457951787664,1.7478870415638927
4.234512176338525,1.971754347379958
4.254566400889384,1.9631440663870323
4.274620625440245,1.902872099436553
4.294674849991106,2.3333861490828323
4.314729074541965,2.37643755404746
4.334783299092826,3.444112397170232
4.354837523643685,6.087468661998385
4.374891748194545,12.32992238186943
4.394945972745405,27.613171144312336
4.415000197296266,60.34945947941539
4.435054421847125,112.1575202138486
4.455108646397986,183.8553300419399
4.475162870948845,259.0919653581236
4.495217095499705,310.9258569355356
4.515271320050566,324.7109168052095
4.535325544601426,294.1874706852883
4.555379769152286,226.73452938670928
4.575433993703146,149.81888927690508
4.5954882182540056,84.78543693733819
4.615542442804865,43.016963840656196
4.635596667355726,20.156667804438783
4.6556508919065855,8.722214645833613
4.675705116457446,4.055442347667948
4.695759341008307,2.583084297877674
4.7158135655591655,2.4797609259625673
4.735867790110026,2.574474016884748
4.755922014660886,3.0910908764602834
4.775976239211746,3.6335385790145946
4.796030463762606,5.04562466185439
4.816084688313467,8.351972563137812
4.8361389128643255,14.31889729123524
4.856193137415186,22.77419322628816
4.876247361966046,34.26030807085088
4.896301586516906,47.69234641981479
4.916355811067767,57.559728437707506
4.936410035618627,58.954593958561446
4.956464260169486,55.217732007631746
4.976518484720346,42.75865541086843
4.996572709271207,30.480394714956553
5.016626933822066,19.36452195308963
5.036681158372927,10.521763373355059
5.056735382923787,5.114506909797795
5.076789607474646,2.522812330927195
5.096843832025506,1.3259832729105394
5.116898056576367,0.9040795042571859
5.136952281127227,0.7060430414198976
5.157006505678087,0.6027196695047906
5.1770607302289475,0.5768888265260138
5.197114954779807,0.6113299504977162
5.217169179330667,0.6888224794340464
5.237223403881527,0.5166168595755348
5.257277628432387,0.7060430414198976
5.277331852983247,0.5338374215613859
5.2973860775341075,0.6888224794340464
5.317440302084967,0.7835355703562278
5.337494526635827,0.7404841653915999
5.3575487511866875,0.8351972563137813
5.377602975737547,0.8265869753208557
5.397657200288408,0.861028099292558
5.4177114248392675,0.7577047273774511
5.437765649390128,0.8265869753208557
5.457819873940987,0.7232636034057487
5.4778740984918475,0.8179766943279301
5.497928323042707,0.6716019174481952
5.517982547593568,0.594109388511865
5.5380367721444275,0.4821757356038325
5.558090996695288,0.5768888265260138
5.578145221246148,0.45634489262505573
5.5981994457970075,0.5338374215613859
5.618253670347868,0.5080065785826092
5.638307894898728,0.430514049646279
5.658362119449588,0.4391243306392046
5.678416344000448,0.42190376865335344
5.698470568551308,0.4735654546109069
5.718524793102167,0.4993962975896836
5.738579017653028,0.37024208269579995
5.758633242203889,0.5166168595755348
5.778687466754748,0.3874626446816511
5.798741691305609,0.3530215207099488
5.818795915856468,0.42190376865335344
5.838850140407328,0.430514049646279
5.858904364958188,0.4821757356038325
5.878958589509049,0.3874626446816511
5.899012814059908,0.5682785455330883
5.919067038610769,0.6716019174481952
5.939121263161628,0.4993962975896836
5.959175487712488,0.6199402314906418
5.979229712263349,0.5424477025543115
5.999283936814209,0.3874626446816511
6.019338161365069,0.41329348766042784
6.039392385915929,0.42190376865335344
6.0594466104667895,0.45634489262505573
6.079500835017648,0.37885236368872555
6.099555059568509,0.32719067773117205
6.1196092841193686,0.26691871078069296
6.139663508670229,0.3874626446816511
6.159717733221089,0.3099701157453209
6.179771957771949,0.4907860165967581
6.199826182322809,0.430514049646279
6.219880406873669,0.37024208269579995
6.239934631424529,0.46495517361798133
6.259988855975389,0.42190376865335344
6.28004308052625,0.594109388511865
6.300097305077109,0.7577047273774511
6.320151529627969,1.0676748431227718
6.340205754178829,1.5498505787266044
6.360259978729689,1.971754347379958
6.380314203280549,2.3247758680899064
6.40036842783141,2.169790810217246
6.42042265238227,2.2042319341889485
6.440476876933129,1.7134459175921903
6.46053110148399,1.5067991737619766
6.480585326034849,1.0590645621298462
6.50063955058571,0.8093664133350045
6.52069377513657,0.6113299504977162
6.54074799968743,0.45634489262505573
6.560802224238289,0.40468320666750224
6.58085644878915,0.2927495537594697
6.600910673340009,0.32719067773117205
6.62096489789087,0.26691871078069296
6.6410191224417305,0.3013598347523953
6.66107334699259,0.37885236368872555
6.68112757154345,0.3530215207099488
6.70118179609431,0.4391243306392046
6.72123602064517,0.3874626446816511
6.74129024519603,0.37885236368872555
6.7613444697468905,0.3530215207099488
6.78139869429775,0.3358009587240976
6.80145291884861,0.28413927276654416
6.82150714339947,0.37024208269579995
6.84156136795033,0.3358009587240976
6.861615592501191,0.26691871078069296
6.8816698170520505,0.3530215207099488
6.901724041602911,0.31858039673824645
6.921778266153771,0.42190376865335344
6.9418324907046305,0.46495517361798133
6.96188671525549,0.32719067773117205
6.981940939806351,0.4477346116321302
7.0019951643572105,0.45634489262505573
7.022049388908071,0.5338374215613859
7.042103613458931,0.6802121984411208
7.0621578380097905,0.6629916364552697
7.082212062560651,0.5682785455330883
7.102266287111511,0.6371607934764929
7.122320511662371,0.5252271405684604
7.142374736213231,0.3530215207099488
7.162428960764092,0.4907860165967581
7.1824831853149504,0.31858039673824645
7.202537409865811,0.3960729256745767
7.222591634416671,0.2583084297877674
7.242645858967531,0.31858039673824645
7.262700083518392,0.3874626446816511
7.282754308069252,0.32719067773117205
7.302808532620111,0.3099701157453209
7.322862757170971,0.26691871078069296
7.342916981721832,0.3013598347523953
7.362971206272691,0.36163180170287434
7.383025430823552,0.3444112397170232
7.403079655374412,0.41329348766042784
7.423133879925271,0.40468320666750224
7.443188104476131,0.36163180170287434
7.463242329026992,0.4821757356038325
7.483296553577852,0.4821757356038325
7.503350778128712,0.37024208269579995
7.5234050026795725,0.40468320666750224
7.543459227230431,0.40468320666750224
7.563513451781292,0.45634489262505573
7.583567676332152,0.3099701157453209
7.603621900883012,0.3444112397170232
7.623676125433872,0.45634489262505573
7.643730349984732,0.3874626446816511
7.663784574535591,0.45634489262505573
7.683838799086452,0.4477346116321302
7.703893023637312,0.46495517361798133
7.723947248188172,0.36163180170287434
7.744001472739033,0.430514049646279
7.764055697289892,0.430514049646279
7.784109921840753,0.4735654546109069
7.804164146391612,0.5424477025543115
7.824218370942472,0.5854991075189394
7.844272595493332,0.45634489262505573
7.864326820044193,0.594109388511865
7.884381044595052,0.5596682645401627
7.904435269145913,0.5252271405684604
7.924489493696773,0.7060430414198976
7.944543718247632,0.7060430414198976
7.964597942798493,0.8093664133350045
7.984652167349353,1.0332337191510697
8.004706391900212,1.1537776530520276
8.024760616451072,1.2657113059600602
8.044814841001934,1.3690346778751672
8.064869065552793,1.498188892769051
8.084923290103653,1.0160131571652185
8.104977514654513,0.8438075373067069
8.125031739205372,0.6888224794340464
8.145085963756234,0.5768888265260138
8.165140188307094,0.5854991075189394
8.185194412857953,0.430514049646279
8.205248637408813,0.37885236368872555
8.225302861959673,0.3099701157453209
8.245357086510534,0.42190376865335344
8.265411311061392,0.3099701157453209
8.285465535612254,0.3530215207099488
8.305519760163113,0.32719067773117205
8.325573984713975,0.37885236368872555
8.345628209264834,0.3099701157453209
8.365682433815692,0.3960729256745767
8.385736658366554,0.40468320666750224
8.405790882917413,0.28413927276654416
8.425845107468275,0.36163180170287434
8.445899332019133,0.3530215207099488
8.465953556569993,0.4907860165967581
8.486007781120854,0.40468320666750224
8.506062005671714,0.42190376865335344
8.526116230222573,0.40468320666750224
8.546170454773433,0.37024208269579995
8.566224679324295,0.4477346116321302
8.586278903875154,0.5080065785826092
8.606333128426014,0.5510579835472371
8.626387352976874,0.4391243306392046
8.646441577527733,0.4735654546109069
8.666495802078595,0.40468320666750224
8.686550026629455,0.45634489262505573
8.706604251180313,0.4391243306392046
8.726658475731174,0.4821757356038325
8.746712700282034,0.40468320666750224
8.766766924832895,0.45634489262505573
8.786821149383755,0.4477346116321302
8.806875373934615,0.430514049646279
8.826929598485474,0.4391243306392046
8.846983823036334,0.42190376865335344
8.867038047587195,0.5166168595755348
8.887092272138053,0.4735654546109069
8.907146496688915,0.5596682645401627
8.927200721239775,0.6199402314906418
8.947254945790636,0.3874626446816511
8.967309170341494,0.4735654546109069
8.987363394892354,0.4477346116321302
9.007417619443215,0.4821757356038325
9.027471843994075,0.5424477025543115
9.047526068544936,0.3960729256745767
9.067580293095794,0.3444112397170232
9.087634517646654,0.24108786780191624
9.107688742197515,0.36163180170287434
9.127742966748375,0.2927495537594697
9.147797191299235,0.3960729256745767
9.167851415850095,0.3099701157453209
9.187905640400956,0.32719067773117205
9.207959864951816,0.3013598347523953
9.228014089502675,0.37885236368872555
9.248068314053535,0.37885236368872555
9.268122538604395,0.37885236368872555
9.288176763155256,0.27552899177361856
9.308230987706116,0.3099701157453209
9.328285212256974,0.36163180170287434
9.348339436807835,0.3013598347523953
9.368393661358695,0.42190376865335344
9.388447885909557,0.37885236368872555
9.408502110460416,0.2927495537594697
9.428556335011276,0.32719067773117205
9.448610559562136,0.3358009587240976
9.468664784112995,0.37024208269579995
9.488719008663857,0.28413927276654416
9.508773233214715,0.3530215207099488
9.528827457765576,0.430514049646279
9.548881682316436,0.3358009587240976
9.568935906867297,0.31858039673824645
9.588990131418155,0.32719067773117205
9.609044355969015,0.42190376865335344
9.629098580519877,0.3099701157453209
9.649152805070736,0.26691871078069296
9.669207029621598,0.42190376865335344
9.689261254172456,0.36163180170287434
9.709315478723315,0.42190376865335344
9.729369703274177,0.3874626446816511
9.749423927825037,0.26691871078069296
9.769478152375896,0.37024208269579995
9.789532376926756,0.2583084297877674
9.809586601477617,0.3358009587240976
9.829640826028477,0.27552899177361856
9.849695050579337,0.4821757356038325
9.869749275130197,0.3874626446816511
9.889803499681056,0.3358009587240976
9.909857724231918,0.37885236368872555
9.929911948782777,0.3530215207099488
9.949966173333635,0.32719067773117205
9.970020397884497,0.36163180170287434
9.990074622435356,0.2496981487948418
10.010128846986218,0.3358009587240976
10.030183071537076,0.31858039673824645
10.050237296087937,0.2927495537594697
10.070291520638797,0.3358009587240976
10.090345745189657,0.31858039673824645
10.110399969740518,0.40468320666750224
10.130454194291376,0.23247758680899067
10.150508418842238,0.2583084297877674
10.170562643393097,0.2927495537594697
10.190616867943957,0.3358009587240976
10.210671092494817,0.24108786780191624
10.230725317045676,0.2927495537594697
10.250779541596538,0.3358009587240976
10.270833766147398,0.3358009587240976
10.290887990698259,0.18081590085143717
10.310942215249117,0.32719067773117205
10.330996439799977,0.37024208269579995
10.351050664350838,0.3013598347523953
10.371104888901698,0.3874626446816511
10.391159113452558,0.3530215207099488
10.411213338003417,0.3530215207099488
10.431267562554279,0.41329348766042784
10.451321787105138,0.40468320666750224
10.471376011655998,0.5768888265260138
10.491430236206858,0.6629916364552697
10.511484460757718,0.5596682645401627
10.531538685308579,0.7146533224128231
10.551592909859439,0.594109388511865
10.571647134410297,0.5682785455330883
10.591701358961158,0.4391243306392046
10.611755583512018,0.46495517361798133
10.63180980806288,0.5510579835472371
10.651864032613737,0.4821757356038325
10.671918257164599,0.3358009587240976
10.691972481715458,0.3874626446816511
10.712026706266318,0.37024208269579995
10.73208093081718,0.40468320666750224
10.752135155368038,0.37024208269579995
10.772189379918899,0.27552899177361856
10.792243604469759,0.32719067773117205
10.812297829020618,0.2927495537594697
10.832352053571478,0.3444112397170232
10.852406278122338,0.3099701157453209
10.8724605026732,0.36163180170287434
