Energy (keV),Intensity (cps),slope,offset,liveTime
-0.01698342844380409,0.0,20.05422455086004,-16.98342844380409,112.63490295410156
0.003070796107055951,0.0
0.023125020657915992,0.0
0.043179245208776036,0.0
0.06323346975963608,0.0
0.08328769431049612,0.0
0.10334191886135616,0.0
0.12339614341221619,0.0
0.14345036796307625,0.0
0.16350459251393631,0.0
0.18355881706479632,0.0
0.20361304161565635,0.0
0.22366726616651642,0.0
0.24372149071737648,0.0
0.26377571526823645,0.0
0.28382993981909654,0.0
0.3038841643699566,0.0
0.3239383889208166,0.0
0.3439926134716767,0.0
0.3640468380225367,0.0
0.38410106257339677,0.0
0.4041552871242568,0.0
0.4242095116751168,0.008878242656341592
0.44426373622597687,0.017756485312683184
0.4643179607768369,0.05326945593804955
0.484372185327697,0.12429539718878228
0.504426409878557,0.16868661047049024
0.5244806344294171,0.32849497828463886
0.544534858980277,0.7901635964144016
0.5645890835311371,1.3583711264202634
0.5846433080819972,2.1840476934600312
0.6046975326328572,2.929820076592725
0.6247517571837172,3.7910096142578595
0.6448059817345773,5.5045104469317865
0.6648602062854374,6.774099146788634
0.6849144308362973,7.759584081642551
0.7049686553871575,9.792701649944775
0.7250228799380175,10.804821312767716
0.7450771044888774,11.612741394494801
0.7651313290397376,11.941236372779441
0.7851855535905976,13.051016704822139
0.8052397781414575,13.122042646072872
0.8252940026923177,14.134162308895814
0.8453482272431777,14.720126324214359
0.8654024517940377,14.267335948740937
0.8854566763448978,14.808908750777775
0.9055109008957578,15.270577368907537
0.925565125446618,15.350481552814612
0.9456193499974779,14.214066492802887
0.9656735745483379,14.49817025780582
0.985727799099198,14.720126324214359
1.005782023650058,14.400509588586061
1.0258362482009182,14.249579463428255
1.0458904727517782,14.311727162022645
1.065944697302638,13.921084485143615
1.0859989218534982,13.876693271861907
1.1060531464043581,14.329483647335328
1.1261073709552183,14.382753103273378
1.1461615955060784,13.965475698425323
1.1662158200569384,14.258457706084595
1.1862700446077983,14.018745154363373
1.2063242691586584,13.628102477484342
1.2263784937095186,13.583711264202634
1.2464327182603785,13.654737205453367
1.2664869428112386,13.494928837639218
1.2865411673620986,13.22858155794897
1.3065953919129585,13.352876955137754
1.3266496164638188,13.370633440450437
1.3467038410146788,13.67249369076605
1.3667580655655387,13.494928837639218
1.3868122901163988,13.44165938170117
1.4068665146672588,14.134162308895814
1.4269207392181191,13.370633440450437
1.446974963768979,13.423902896388485
1.467029188319839,13.796789087954833
1.4870834128706991,13.681371933422392
1.507137637421559,14.098649338270446
1.527191861972419,13.77903260264215
1.5472460865232793,13.415024653732145
1.5673003110741393,13.193068587323605
1.5873545356249992,13.530441808264586
1.6074087601758593,13.148677374041897
1.6274629847267192,12.846817123726282
1.6475172092775794,13.086529675447505
1.6675714338284395,13.716884904047758
1.6876256583792995,15.199551427656804
1.7076798829301594,16.540166068764385
1.7277341074810195,17.880780709871964
1.7477883320318794,17.18827778267732
1.7678425565827396,16.53128782610804
1.7878967811335997,14.826665236090458
1.8079510056844597,14.462657287180452
1.8280052302353196,13.67249369076605
1.8480594547861797,14.134162308895814
1.8681136793370399,13.796789087954833
1.8881679038879,13.654737205453367
1.90822212843876,14.640222140307284
1.9282763529896199,13.690250176078735
1.94833057754048,14.462657287180452
1.9683848020913401,13.876693271861907
1.9884390266422,13.734641389360442
2.00849325119306,13.210825072636288
2.02854747574392,14.480413772493135
2.04860170029478,13.716884904047758
2.06865592484564,12.837938881069942
2.0887101493965003,13.486050594982878
2.10876437394736,13.61034599217166
2.12881859849822,13.299607499199704
2.1488728230490803,13.16643385935458
2.16892704759994,12.598226329348718
2.1889812721508,13.006625491540431
2.2090354967016603,12.687008755912133
2.22908972125252,13.11316440341653
2.2491439458033806,12.6159828146614
2.2691981703542408,13.601467749515319
2.2892523949051005,12.704765241224816
2.3093066194559606,12.704765241224816
2.3293608440068208,12.38514850559652
2.3494150685576805,12.358513777627495
2.3694692931085406,12.136557711218956
2.3895235176594007,12.855695366382625
2.4095777422102604,13.193068587323605
2.4296319667611206,12.340757292314812
2.449686191311981,12.60710457200506
2.469740415862841,12.598226329348718
2.489794640413701,11.594984909182118
2.509848864964561,12.198705409813346
2.529903089515421,11.452933026680652
2.549957314066281,11.577228423869435
2.570011538617141,11.48844599730602
2.590065763168001,11.683767335745534
2.610119987718861,11.630497879807484
2.630174212269721,12.136557711218956
2.650228436820581,11.408541813398944
2.6702826613714414,10.573987003702836
2.6903368859223016,11.319759386835528
2.7103911104731613,10.529595790421126
2.7304453350240214,11.106681563083331
2.7504995595748816,10.44081336385771
2.7705537841257413,11.168829261677722
2.7906080086766014,10.343152694637954
2.8106622332274616,10.360909179950637
2.8307164577783213,10.520717547764786
2.8507706823291814,10.37866566526332
2.870824906880042,9.632893282130626
2.8908791314309017,10.085683657604047
2.910933355981762,10.582865246359177
2.930987580532622,10.414178635888687
2.9510418050834817,10.032414201665999
2.971096029634342,10.325396209325271
2.991150254185202,9.908118804477215
3.011204478736062,9.916997047133558
3.031258703286922,9.171224664000864
3.051312927837782,9.20673763462623
3.071367152388642,8.97590332556135
3.0914213769395023,9.109076965406473
3.1114756014903624,8.585260648682318
3.1315298260412225,8.567504163369636
3.1515840505920822,9.37542424509672
3.1716382751429424,8.283400398366705
3.1916924996938025,8.283400398366705
3.2117467242446622,7.839488265549625
3.2318009487955224,7.910514206800358
3.2518551733463825,7.368941404763521
3.2719093978972422,7.857244750862308
3.2919636224481024,7.368941404763521
3.312017846998963,7.08483763976059
3.3320720715498227,7.102594125073273
3.352126296100683,7.493236801952303
3.372180520651543,6.978298727884491
3.3922347452024026,6.791855632101317
3.412288969753263,6.711951448194243
3.432343194304123,6.2946740433461885
3.4523974188549826,6.543264837723752
3.472451643405843,6.347943499284238
3.492505867956703,6.1082309475630145
3.5125600925075626,6.445604168503995
3.532614317058423,5.983935550374232
3.5526685416092834,5.939544337092524
3.572722766160143,5.779735969278376
3.592776990711003,5.611049358807886
3.6128312152618633,5.646562329433252
3.632885439812723,5.566658145526178
3.652939664363583,5.46899747630642
3.6729938889144433,5.149380740678123
3.693048113465303,5.415728020368371
3.713102338016163,5.007328858176657
3.7331565625670238,4.812007519737143
3.7532107871178835,4.51902551207787
3.7732650116687436,4.146139320511523
3.7933192362196038,4.501269026765187
3.8133734607704635,4.243799989731281
3.8334276853213236,4.181652291136889
3.8534819098721838,3.817644342226884
3.873536134423044,4.110626349886156
3.8935903589739036,4.0662351366044485
3.9136445835247637,3.7732531289451763
3.933698808075624,3.977452710041033
3.953753032626484,3.870913798164934
3.973807257177344,3.613444761131028
3.9938614817282043,3.799887856914201
4.0139157062790645,3.453636393316879
4.033969930829924,3.4802711212859037
4.054024155380784,2.9830895325307747
4.0740783799316445,3.2050455989393143
4.094132604482504,3.2938280255027306
4.114186829033365,3.2671932975337055
4.1342410535842244,3.0274807458124826
4.154295278135085,2.947576561905408
4.174349502685945,3.036358988468824
4.194403727236805,2.9209418339363835
4.214457951787664,2.6102033409644276
4.234512176338525,2.592446855651745
4.254566400889384,2.823281164716626
4.274620625440245,2.6013250983080862
4.294674849991106,2.4148820025249127
4.314729074541965,2.2461953920544224
4.334783299092826,2.6634727969024774
4.354837523643685,2.3793690318995466
4.374891748194545,2.3083430906488136
4.394945972745405,2.2106824214290564
4.415000197296266,2.17516945080369
4.435054421847125,2.3083430906488136
4.455108646397986,2.130778237521982
4.475162870948845,2.1396564801783233
4.495217095499705,2.0952652668966154
4.515271320050566,2.1130217522092987
4.535325544601426,1.7667702886119767
4.555379769152286,2.0331175683022242
4.575433993703146,1.997604597676858
4.5954882182540056,1.7223790753302688
4.615542442804865,1.9887263550205165
4.635596667355726,1.651353134079536
4.6556508919065855,1.908822171113442
4.675705116457446,1.7223790753302688
4.695759341008307,1.5892054354851448
4.7158135655591655,1.606961920797828
4.735867790110026,1.5714489501724616
4.755922014660886,1.6602313767358776
4.775976239211746,1.349492883763922
4.796030463762606,1.349492883763922
4.816084688313467,1.367249369076605
4.8361389128643255,1.500423008921729
4.856193137415186,1.411640582358313
4.876247361966046,1.3317363984512387
4.896301586516906,1.3850058543892882
4.916355811067767,1.1186585746990405
4.936410035618627,1.0920238467300156
4.956464260169486,1.2429539718878229
4.976518484720346,1.1364150600117238
4.996572709271207,1.3583711264202634
5.016626933822066,1.3761276117329466
5.036681158372927,1.1630497879807484
5.056735382923787,1.2251974865751396
5.076789607474646,1.0742673614173326
5.096843832025506,1.1275368173553821
5.116898056576367,1.0565108761046493
5.136952281127227,1.0476326334483077
5.157006505678087,1.1097803320426989
5.1770607302289475,1.2340757292314812
5.197114954779807,0.9854849348539166
5.217169179330667,0.9499719642285502
5.237223403881527,1.1452933026680652
5.257277628432387,0.9854849348539166
5.277331852983247,0.9410937215722087
5.2973860775341075,1.1097803320426989
5.317440302084967,1.4293970676709962
5.337494526635827,1.6779878620485607
5.3575487511866875,1.544814222203437
5.377602975737547,2.17516945080369
5.397657200288408,2.3793690318995466
5.4177114248392675,2.3971255172122294
5.437765649390128,2.17516945080369
5.457819873940987,1.95321338439515
5.4778740984918475,1.606961920797828
5.497928323042707,1.3938840970456299
5.517982547593568,1.0298761481356247
5.5380367721444275,0.8611895376651344
5.558090996695288,0.7990418390707432
5.578145221246148,0.825676567039768
5.5981994457970075,0.8345548096961096
5.618253670347868,0.7990418390707432
5.638307894898728,0.674746441881961
5.658362119449588,0.8878242656341592
5.678416344000448,0.6569899565692777
5.698470568551308,0.8345548096961096
5.718524793102167,0.8967025082905007
5.738579017653028,0.8079200817270848
5.758633242203889,0.674746441881961
5.778687466754748,0.6925029271946441
5.798741691305609,0.7724071111017184
5.818795915856468,0.7013811698509858
5.838850140407328,0.9322154789158671
5.858904364958188,0.7901635964144016
5.878958589509049,0.8878242656341592
5.899012814059908,0.9854849348539166
5.919067038610769,0.9322154789158671
5.939121263161628,0.9854849348539166
5.959175487712488,0.8611895376651344
5.979229712263349,1.0121196628229414
5.999283936814209,0.7901635964144016
6.019338161365069,0.7724071111017184
6.039392385915929,0.6836246845383025
6.0594466104667895,0.6125987432875698
6.079500835017648,0.7102594125073273
6.099555059568509,0.6569899565692777
6.1196092841193686,0.5326945593804955
6.139663508670229,0.6836246845383025
6.159717733221089,0.7546506257890353
6.179771957771949,0.6658681992256194
6.199826182322809,0.5948422579748867
6.219880406873669,0.6569899565692777
6.239934631424529,0.7280158978200105
6.259988855975389,0.5238163167241539
6.28004308052625,0.8700677803214759
6.300097305077109,0.9322154789158671
6.320151529627969,1.2695886998568475
6.340205754178829,1.5980836781414864
6.360259978729689,2.2284389067417396
6.380314203280549,2.3971255172122294
6.40036842783141,2.450394973150279
6.42042265238227,2.654594554246136
6.440476876933129,1.997604597676858
6.46053110148399,1.757892045955635
6.480585326034849,1.473788280952704
6.50063955058571,1.1541715453244068
6.52069377513657,0.736894140476352
6.54074799968743,0.8079200817270848
6.560802224238289,0.6214769859439114
6.58085644878915,0.6392334712565946
6.600910673340009,0.5593292873495203
6.62096489789087,0.6125987432875698
6.6410191224417305,0.5948422579748867
6.66107334699259,0.5770857726622034
6.68112757154345,0.5326945593804955
6.70118179609431,0.5149380740678123
6.72123602064517,0.49718158875512913
6.74129024519603,0.5149380740678123
6.7613444697468905,0.49718158875512913
6.78139869429775,0.6569899565692777
6.80145291884861,0.5682075300058619
6.82150714339947,0.5593292873495203
6.84156136795033,0.5770857726622034
6.861615592501191,0.6125987432875698
6.8816698170520505,0.5149380740678123
6.901724041602911,0.6658681992256194
6.921778266153771,0.5326945593804955
6.9418324907046305,0.5682075300058619
6.96188671525549,0.5948422579748867
6.981940939806351,0.5682075300058619
7.0019951643572105,0.6214769859439114
7.022049388908071,0.8167983243834264
7.042103613458931,0.9410937215722087
7.0621578380097905,0.6925029271946441
7.082212062560651,0.8434330523524511
7.102266287111511,0.674746441881961
7.122320511662371,0.5770857726622034
7.142374736213231,0.6214769859439114
7.162428960764092,0.4083991621917132
7.1824831853149504,0.6569899565692777
7.202537409865811,0.6125987432875698
7.222591634416671,0.45279037547342116
7.242645858967531,0.45279037547342116
7.262700083518392,0.5060598314114707
7.282754308069252,0.5415728020368371
7.302808532620111,0.4883033460987875
7.322862757170971,0.4439121328170796
7.342916981721832,0.47942510344244593
7.362971206272691,0.5770857726622034
7.383025430823552,0.6392334712565946
7.403079655374412,0.6392334712565946
7.423133879925271,0.7280158978200105
7.443188104476131,0.6658681992256194
7.463242329026992,0.6214769859439114
7.483296553577852,0.6925029271946441
7.503350778128712,0.7191376551636689
7.5234050026795725,0.736894140476352
7.543459227230431,0.6214769859439114
7.563513451781292,0.5682075300058619
7.583567676332152,0.5149380740678123
7.603621900883012,0.5149380740678123
7.623676125433872,0.6658681992256194
7.643730349984732,0.49718158875512913
7.663784574535591,0.630355228600253
7.683838799086452,0.6481117139129362
7.703893023637312,0.5238163167241539
7.723947248188172,0.5060598314114707
7.744001472739033,0.5238163167241539
7.764055697289892,0.5149380740678123
7.784109921840753,0.7635288684453768
7.804164146391612,0.6481117139129362
7.824218370942472,0.7280158978200105
7.844272595493332,0.8434330523524511
7.864326820044193,0.7901635964144016
7.884381044595052,1.0742673614173326
7.904435269145913,0.674746441881961
7.924489493696773,0.8345548096961096
7.944543718247632,0.9943631775102583
7.964597942798493,1.216319243918798
7.984652167349353,1.2251974865751396
8.004706391900212,1.5270577368907536
8.024760616451072,1.3583711264202634
8.044814841001934,1.518179494234412
8.064869065552793,1.7490138032992935
8.084923290103653,1.3051016704822138
8.104977514654513,1.1541715453244068
8.125031739205372,1.020997905479283
8.145085963756234,0.6925029271946441
8.165140188307094,0.7457723831326937
8.185194412857953,0.6836246845383025
8.205248637408813,0.5149380740678123
8.225302861959673,0.6392334712565946
8.245357086510534,0.4439121328170796
8.265411311061392,0.5948422579748867
8.285465535612254,0.6214769859439114
8.305519760163113,0.4083991621917132
8.325573984713975,0.45279037547342116
8.345628209264834,0.4261556475043964
8.365682433815692,0.47054686078610436
8.385736658366554,0.43503389016073796
8.405790882917413,0.46166861812976273
8.425845107468275,0.5504510446931786
8.445899332019133,0.46166861812976273
8.465953556569993,0.47942510344244593
8.486007781120854,0.43503389016073796
8.506062005671714,0.5238163167241539
8.526116230222573,0.4172774048480548
8.546170454773433,0.5326945593804955
8.566224679324295,0.585964015318545
8.586278903875154,0.5415728020368371
8.606333128426014,0.5770857726622034
8.626387352976874,0.585964015318545
8.646441577527733,0.6925029271946441
8.666495802078595,0.6481117139129362
8.686550026629455,0.7457723831326937
8.706604251180313,0.6037205006312282
8.726658475731174,0.5770857726622034
8.746712700282034,0.5149380740678123
8.766766924832895,0.5770857726622034
8.786821149383755,0.5238163167241539
8.806875373934615,0.7013811698509858
8.826929598485474,0.6392334712565946
8.846983823036334,0.6925029271946441
8.867038047587195,0.6925029271946441
8.887092272138053,0.630355228600253
8.907146496688915,0.6925029271946441
8.927200721239775,0.6836246845383025
8.947254945790636,0.6125987432875698
8.967309170341494,0.4883033460987875
8.987363394892354,0.5504510446931786
9.007417619443215,0.5149380740678123
9.027471843994075,0.47942510344244593
9.047526068544936,0.46166861812976273
9.067580293095794,0.5060598314114707
9.087634517646654,0.5593292873495203
9.107688742197515,0.5238163167241539
9.127742966748375,0.585964015318545
9.147797191299235,0.6836246845383025
9.167851415850095,0.7457723831326937
9.187905640400956,0.6569899565692777
9.207959864951816,0.7546506257890353
9.228014089502675,0.7191376551636689
9.248068314053535,0.8345548096961096
9.268122538604395,0.7280158978200105
9.288176763155256,0.5415728020368371
9.308230987706116,0.7280158978200105
9.328285212256974,0.5682075300058619
9.348339436807835,0.46166861812976273
9.368393661358695,0.46166861812976273
9.388447885909557,0.5238163167241539
9.408502110460416,0.46166861812976273
9.428556335011276,0.5504510446931786
9.448610559562136,0.3995209195353716
9.468664784112995,0.43503389016073796
9.488719008663857,0.45279037547342116
9.508773233214715,0.37288619156634684
9.528827457765576,0.5770857726622034
9.548881682316436,0.5948422579748867
9.568935906867297,0.5504510446931786
9.588990131418155,0.4883033460987875
9.609044355969015,0.49718158875512913
9.629098580519877,0.3995209195353716
9.649152805070736,0.5770857726622034
9.669207029621598,0.5770857726622034
9.689261254172456,0.5948422579748867
9.709315478723315,0.6836246845383025
9.729369703274177,0.5504510446931786
9.749423927825037,0.585964015318545
9.769478152375896,0.5060598314114707
9.789532376926756,0.4083991621917132
9.809586601477617,0.47942510344244593
9.829640826028477,0.5238163167241539
9.849695050579337,0.4883033460987875
9.869749275130197,0.45279037547342116
9.889803499681056,0.5770857726622034
9.909857724231918,0.43503389016073796
9.929911948782777,0.5415728020368371
9.949966173333635,0.6037205006312282
9.970020397884497,0.47054686078610436
9.990074622435356,0.5504510446931786
10.010128846986218,0.5060598314114707
10.030183071537076,0.5948422579748867
10.050237296087937,0.4083991621917132
10.070291520638797,0.43503389016073796
10.090345745189657,0.4083991621917132
10.110399969740518,0.47942510344244593
10.130454194291376,0.37288619156634684
10.150508418842238,0.5149380740678123
10.170562643393097,0.47942510344244593
10.190616867943957,0.5149380740678123
10.210671092494817,0.3373732209409805
10.230725317045676,0.4172774048480548
10.250779541596538,0.45279037547342116
10.270833766147398,0.46166861812976273
10.290887990698259,0.4883033460987875
10.310942215249117,0.6037205006312282
10.330996439799977,0.49718158875512913
10.351050664350838,0.7724071111017184
10.371104888901698,0.9499719642285502
10.391159113452558,1.1630497879807484
10.411213338003417,1.5892054354851448
10.431267562554279,2.2106824214290564
10.451321787105138,2.8321594073729677
10.471376011655998,3.453636393316879
10.491430236206858,3.808766099570543
10.511484460757718,5.2026501966161725
10.531538685308579,5.611049358807886
10.551592909859439,5.9217878517798415
10.571647134410297,5.5045104469317865
10.591701358961158,5.007328858176657
10.611755583512018,4.803129277080801
10.63180980806288,3.711105430350785
10.651864032613737,2.548055642370037
10.671918257164599,2.1574129654910066
10.691972481715458,1.518179494234412
10.712026706266318,1.0476326334483077
10.73208093081718,1.038754390791966
10.752135155368038,0.7191376551636689
10.772189379918899,0.47942510344244593
10.792243604469759,0.45279037547342116
10.812297829020618,0.6125987432875698
10.832352053571478,0.5948422579748867
10.852406278122338,0.5682075300058619
