Energy (keV),Intensity (cps),slope,offset,liveTime
-0.01698342844380409,0.0,20.05422455086004,-16.98342844380409,116.53094482421875
0.003070796107055951,0.0
0.023125020657915992,0.0
0.043179245208776036,0.0
0.06323346975963608,0.0
0.08328769431049612,0.0
0.10334191886135616,0.0
0.12339614341221619,0.0
0.14345036796307625,0.0
0.16350459251393631,0.0
0.18355881706479632,0.0
0.20361304161565635,0.0
0.22366726616651642,0.0
0.24372149071737648,0.0
0.26377571526823645,0.0
0.28382993981909654,0.0
0.3038841643699566,0.0
0.3239383889208166,0.0
0.3439926134716767,0.0
0.3640468380225367,0.0
0.38410106257339677,0.0
0.4041552871242568,0.0
0.4242095116751168,0.01716282317127783
0.44426373622597687,0.0
0.4643179607768369,0.01716282317127783
0.484372185327697,0.042907057928194575
0.504426409878557,0.06006988109947241
0.5244806344294171,0.19737246646969506
0.544534858980277,0.3861635213537512
0.5645890835311371,0.609280222580363
0.5846433080819972,0.9096296280777251
0.6046975326328572,1.2957931494314763
0.6247517571837172,1.922236195183117
0.6448059817345773,2.8232844116752034
0.6648602062854374,3.346750518399177
0.6849144308362973,3.853053801951873
0.7049686553871575,4.402264143432764
0.7250228799380175,5.577917530665295
0.7450771044888774,6.075639402632352
0.7651313290397376,6.496128570328659
0.7851855535905976,6.659175390455799
0.8052397781414575,7.35426972889255
0.8252940026923177,6.925199149610605
0.8453482272431777,7.04533891180955
0.8654024517940377,7.4486652563345785
0.8854566763448978,7.234129966693605
0.9055109008957578,7.508735137434051
0.925565125446618,6.968106207538799
0.9456193499974779,7.534479372190968
0.9656735745483379,7.44008384474894
0.985727799099198,7.35426972889255
1.005782023650058,7.543060783776607
1.0258362482009182,7.474409491091495
1.0458904727517782,6.925199149610605
1.065944697302638,6.925199149610605
1.0859989218534982,7.174060085594133
1.1060531464043581,7.242711378279244
1.1261073709552183,6.9509433843675215
1.1461615955060784,7.019594677052633
1.1662158200569384,7.105408792909022
1.1862700446077983,6.504709981914298
1.2063242691586584,6.985269030710077
1.2263784937095186,7.0625017349808275
1.2464327182603785,6.710663859969632
1.2664869428112386,7.259874201450523
1.2865411673620986,7.04533891180955
1.3065953919129585,6.3845702197153535
1.3266496164638188,6.899454914853688
1.3467038410146788,6.865129268511132
1.3667580655655387,7.0024318538813555
1.3868122901163988,7.019594677052633
1.4068665146672588,6.865129268511132
1.4269207392181191,6.539035628256854
1.446974963768979,6.7278266831409095
1.467029188319839,7.251292789864884
1.4870834128706991,7.534479372190968
1.507137637421559,6.830803622168577
1.527191861972419,6.676338213627076
1.5472460865232793,6.599105509356326
1.5673003110741393,6.633431155698882
1.5873545356249992,6.7278266831409095
1.6074087601758593,6.530454216671215
1.6274629847267192,6.95952479595316
1.6475172092775794,6.8393850337542155
1.6675714338284395,7.028176088638272
1.6876256583792995,6.204360576416936
1.7076798829301594,6.315918927030242
1.7277341074810195,6.539035628256854
1.7477883320318794,6.521872805085576
1.7678425565827396,6.925199149610605
1.7878967811335997,6.530454216671215
1.8079510056844597,6.101383637389269
1.8280052302353196,6.676338213627076
1.8480594547861797,6.744989506312187
1.8681136793370399,6.882292091682411
1.8881679038879,6.290174692273325
1.90822212843876,7.156897262422856
1.9282763529896199,6.899454914853688
1.94833057754048,6.521872805085576
1.9683848020913401,5.912592582505213
1.9884390266422,6.427477277643548
2.00849325119306,6.744989506312187
2.02854747574392,6.607686920941965
2.04860170029478,6.393151631300992
2.06865592484564,6.478965747157381
2.0887101493965003,6.80505938741166
2.10876437394736,5.904011170919574
2.12881859849822,6.539035628256854
2.1488728230490803,6.633431155698882
2.16892704759994,6.633431155698882
2.1889812721508,6.041313756289797
2.2090354967016603,6.496128570328659
2.22908972125252,6.3330817502015195
2.2491439458033806,6.212941988002575
2.2691981703542408,6.719245271555271
2.2892523949051005,5.964081052019046
2.3093066194559606,6.470384335571742
2.3293608440068208,6.2215233995882135
2.3494150685576805,5.792452820306268
2.3694692931085406,5.878266936162657
2.3895235176594007,6.101383637389269
2.4095777422102604,5.517847649565823
2.4296319667611206,6.144290695317464
2.449686191311981,5.912592582505213
2.469740415862841,5.69805729286424
2.489794640413701,5.689475881278601
2.509848864964561,5.783871408720629
2.529903089515421,5.955499640433407
2.549957314066281,5.955499640433407
2.570011538617141,6.195779164831297
2.590065763168001,5.423452122123795
2.610119987718861,5.680894469692962
2.630174212269721,5.69805729286424
2.650228436820581,5.6122431770078505
2.6702826613714414,5.577917530665295
2.6903368859223016,5.758127173963712
2.7103911104731613,5.655150234936046
2.7304453350240214,6.084220814217991
2.7504995595748816,5.766708585549352
2.7705537841257413,5.2174982440684605
2.7906080086766014,5.732382939206795
2.8106622332274616,5.637987411764768
2.8307164577783213,5.85252270140574
2.8507706823291814,6.084220814217991
2.870824906880042,5.492103414808906
2.8908791314309017,5.30331235992485
2.910933355981762,5.715220116035518
2.930987580532622,5.509266237980183
2.9510418050834817,5.7238015276211565
2.971096029634342,6.049895167875436
2.991150254185202,6.127127872146185
3.011204478736062,5.826778466648824
3.031258703286922,5.166009774554627
3.051312927837782,5.912592582505213
3.071367152388642,5.818197055063185
3.0914213769395023,5.85252270140574
3.1114756014903624,5.8868483477482965
3.1315298260412225,5.843941289820101
3.1515840505920822,5.758127173963712
3.1716382751429424,6.058476579461074
3.1916924996938025,5.406289298952517
3.2117467242446622,5.826778466648824
3.2318009487955224,5.535010472737101
3.2518551733463825,5.715220116035518
3.2719093978972422,5.861104112991379
3.2919636224481024,5.389126475781239
3.312017846998963,5.740964350792434
3.3320720715498227,5.749545762378073
3.352126296100683,5.861104112991379
3.372180520651543,5.54359188432274
3.3922347452024026,5.414870710538156
3.412288969753263,5.509266237980183
3.432343194304123,5.449196356880711
3.4523974188549826,5.363382241024322
3.472451643405843,5.6122431770078505
3.492505867956703,5.311893771510489
3.5125600925075626,5.054451423941321
3.532614317058423,4.857078957471626
3.5526685416092834,5.260405301996655
3.572722766160143,5.397707887366878
3.592776990711003,5.020125777598766
3.6128312152618633,5.406289298952517
3.632885439812723,4.899986015399821
3.652939664363583,5.131684128212071
3.6729938889144433,4.805590487957793
3.693048113465303,4.925730250156738
3.713102338016163,5.028707189184405
3.7331565625670238,5.166009774554627
3.7532107871178835,4.9943815428418485
3.7732650116687436,4.625380844659375
3.7933192362196038,4.728357783687042
3.8133734607704635,5.071614247112599
3.8334276853213236,5.114521305040793
3.8534819098721838,4.711194960515765
3.873536134423044,4.74552060685832
3.8935903589739036,4.694032137344487
3.9136445835247637,4.839916134300348
3.933698808075624,4.522403905631709
3.953753032626484,4.917148838571099
3.973807257177344,4.530985317217348
3.9938614817282043,4.651125079416293
4.0139157062790645,4.367938497090208
4.033969930829924,4.247798734891263
4.054024155380784,4.4966596708747915
4.0740783799316445,4.230635911719985
4.094132604482504,4.342194262333291
4.114186829033365,4.256380146476902
4.1342410535842244,4.144821795863596
4.154295278135085,4.161984619034874
4.174349502685945,4.3250314391620135
4.194403727236805,3.9817749757364567
4.214457951787664,4.007519210493373
4.234512176338525,3.8358909787805953
4.254566400889384,4.264961558062541
4.274620625440245,4.024682033664652
4.294674849991106,3.7844025092667617
4.314729074541965,3.9817749757364567
4.334783299092826,4.076170503178485
4.354837523643685,3.6728441586534557
4.374891748194545,4.307868615990736
4.394945972745405,3.887379448294429
4.415000197296266,4.479496847703514
4.435054421847125,4.814171899543432
4.455108646397986,5.3805450641956
4.475162870948845,6.024150933118519
4.495217095499705,6.006988109947241
4.515271320050566,6.453221512400464
4.535325544601426,5.8868483477482965
4.555379769152286,5.509266237980183
4.575433993703146,4.8828231922285426
4.5954882182540056,4.290705792819458
4.615542442804865,4.316450027576375
4.635596667355726,3.853053801951873
4.6556508919065855,3.8187281556093176
4.675705116457446,3.998937798907735
4.695759341008307,3.552704396454511
4.7158135655591655,3.1922851098576768
4.735867790110026,3.381076164741733
4.755922014660886,3.1665408751007598
4.775976239211746,3.226610756200232
4.796030463762606,3.269517814128427
4.816084688313467,3.4068203994986495
4.8361389128643255,3.1837036982720375
4.856193137415186,3.312424872056621
4.876247361966046,3.269517814128427
4.896301586516906,3.24377357937151
4.916355811067767,3.552704396454511
4.936410035618627,3.664262747067817
4.956464260169486,3.115052405586926
4.976518484720346,2.969168408631065
4.996572709271207,3.1751222866863986
5.016626933822066,2.8919357043603147
5.036681158372927,2.857610058017759
5.056735382923787,2.6001677104485914
5.076789607474646,2.737470295818814
5.096843832025506,2.5143535945922024
5.116898056576367,2.4800279482496466
5.136952281127227,2.428539478735813
5.157006505678087,2.574423475691675
5.1770607302289475,2.7117260610618974
5.197114954779807,2.505772183006563
5.217169179330667,2.4113766555645353
5.237223403881527,2.7889587653326475
5.257277628432387,2.3255625397081463
5.277331852983247,2.334143951293785
5.2973860775341075,2.13677148482409
5.317440302084967,2.342725362879424
5.337494526635827,2.462865125078369
5.3575487511866875,3.029238289730537
5.377602975737547,3.269517814128427
5.397657200288408,3.140796640343843
5.4177114248392675,3.252354990957149
5.437765649390128,3.1064709940012873
5.457819873940987,2.6001677104485914
5.4778740984918475,2.5658420641060355
5.497928323042707,2.2998183049512293
5.517982547593568,1.9908874878682283
5.5380367721444275,1.827840667741089
5.558090996695288,1.7849336098128945
5.578145221246148,1.939399018354395
5.5981994457970075,1.7935150213985334
5.618253670347868,1.6905380823708664
5.638307894898728,1.6991194939565053
5.658362119449588,1.6390496128570329
5.678416344000448,1.716282317127783
5.698470568551308,1.716282317127783
5.718524793102167,1.5103284390724492
5.738579017653028,1.42451432321606
5.758633242203889,1.5961425549288384
5.778687466754748,1.3816072652878655
5.798741691305609,1.5017470274868103
5.818795915856468,1.407351500044782
5.838850140407328,1.42451432321606
5.858904364958188,1.4502585579729768
5.878958589509049,1.536072673829366
5.899012814059908,1.4931656159011713
5.919067038610769,1.5274912622437269
5.939121263161628,1.5446540854150048
5.959175487712488,1.6047239665144772
5.979229712263349,1.4674213811442545
5.999283936814209,1.227141856746365
6.019338161365069,1.2443046799176427
6.039392385915929,1.5446540854150048
6.0594466104667895,1.1670719756468926
6.079500835017648,1.3472816189453098
6.099555059568509,1.012606567105392
6.1196092841193686,1.2013976219894482
6.139663508670229,1.227141856746365
6.159717733221089,1.3901886768735043
6.179771957771949,1.1842347988181703
6.199826182322809,1.1670719756468926
6.219880406873669,1.9565618415256727
6.239934631424529,2.445702301907091
6.259988855975389,4.453752612946597
6.28004308052625,8.813109698451166
6.300097305077109,15.343563915122381
6.320151529627969,24.577162781269855
6.340205754178829,37.49218721765642
6.360259978729689,49.93523401683285
6.380314203280549,58.190551962217484
6.40036842783141,62.35253658125236
6.42042265238227,58.63678536467071
6.440476876933129,50.39863024245735
6.46053110148399,37.629489803026644
6.480585326034849,26.465073330110414
6.50063955058571,16.030076841973493
6.52069377513657,9.087714869191611
6.54074799968743,4.874241780642904
6.560802224238289,2.4971907714209243
6.58085644878915,1.733445140299061
6.600910673340009,1.0726764482048645
6.62096489789087,1.012606567105392
6.6410191224417305,1.115583506133059
6.66107334699259,0.8495597469782527
6.68112757154345,0.8667225701495305
6.70118179609431,0.8238155122213359
6.72123602064517,0.8753039817351694
6.74129024519603,0.71225716160803
6.7613444697468905,0.8581411585638915
6.78139869429775,0.7637456311218634
6.80145291884861,0.7465828079505856
6.82150714339947,0.8838853933208083
6.84156136795033,0.8753039817351694
6.861615592501191,1.012606567105392
6.8816698170520505,1.0898392713761422
6.901724041602911,1.42451432321606
6.921778266153771,1.8879105488405614
6.9418324907046305,2.625911945205508
6.96188671525549,4.264961558062541
6.981940939806351,5.406289298952517
7.0019951643572105,7.740433250246302
7.022049388908071,9.396645686274612
7.042103613458931,11.104346591816757
7.0621578380097905,10.67527601253481
7.082212062560651,10.083158613125725
7.102266287111511,8.898923814307555
7.122320511662371,6.496128570328659
7.142374736213231,5.011544366013126
7.162428960764092,2.9090985275315924
7.1824831853149504,2.0166317226251453
7.202537409865811,1.2872117378458374
7.222591634416671,0.8238155122213359
7.242645858967531,0.7723270427075024
7.262700083518392,0.47197763721014035
7.282754308069252,0.4462334024532236
7.302808532620111,0.42048916769630684
7.322862757170971,0.46339622562450145
7.342916981721832,0.46339622562450145
7.362971206272691,0.4977218719670571
7.383025430823552,0.5320475183096127
7.403079655374412,0.5835359878234463
7.423133879925271,0.6436058689229187
7.443188104476131,0.6178616341660019
7.463242329026992,0.7465828079505856
7.483296553577852,0.720838573193669
7.503350778128712,0.6693501036798354
7.5234050026795725,0.506303283552696
7.543459227230431,0.5148846951383349
7.563513451781292,0.5234661067239739
7.583567676332152,0.47197763721014035
7.603621900883012,0.5320475183096127
7.623676125433872,0.4977218719670571
7.643730349984732,0.42048916769630684
7.663784574535591,0.47197763721014035
7.683838799086452,0.45481481403886254
7.703893023637312,0.29176799391172314
7.723947248188172,0.3861635213537512
7.744001472739033,0.42907057928194575
7.764055697289892,0.4891404603814182
7.784109921840753,0.4376519908675847
7.804164146391612,0.3518378750111955
7.824218370942472,0.42048916769630684
7.844272595493332,0.3861635213537512
7.864326820044193,0.3947449329393901
7.884381044595052,0.42907057928194575
7.904435269145913,0.5492103414808905
7.924489493696773,0.5406289298952517
7.944543718247632,0.5492103414808905
7.964597942798493,0.5749545762378073
7.984652167349353,0.7294199847793078
8.004706391900212,0.7465828079505856
8.024760616451072,0.7809084542931413
8.044814841001934,0.703675750022391
8.064869065552793,0.8495597469782527
8.084923290103653,0.720838573193669
8.104977514654513,0.6607686920941965
8.125031739205372,0.6006988109947241
8.145085963756234,0.5148846951383349
8.165140188307094,0.4376519908675847
8.185194412857953,0.3775821097681123
8.205248637408813,0.3346750518399177
8.225302861959673,0.3432564634255566
8.245357086510534,0.3604192865968345
8.265411311061392,0.3775821097681123
8.285465535612254,0.3861635213537512
8.305519760163113,0.29176799391172314
8.325573984713975,0.3604192865968345
8.345628209264834,0.30893081708300096
8.365682433815692,0.30893081708300096
8.385736658366554,0.3604192865968345
8.405790882917413,0.3260936402542788
8.425845107468275,0.30893081708300096
8.445899332019133,0.30034940549736205
8.465953556569993,0.29176799391172314
8.486007781120854,0.30893081708300096
8.506062005671714,0.3432564634255566
8.526116230222573,0.3346750518399177
8.546170454773433,0.403326344525029
8.566224679324295,0.4891404603814182
8.586278903875154,0.46339622562450145
8.606333128426014,0.6350244573372797
8.626387352976874,0.5577917530665295
8.646441577527733,0.48055904879577926
8.666495802078595,0.5406289298952517
8.686550026629455,0.42907057928194575
8.706604251180313,0.4376519908675847
8.726658475731174,0.3690006981824734
8.746712700282034,0.42048916769630684
8.766766924832895,0.29176799391172314
8.786821149383755,0.3346750518399177
8.806875373934615,0.3947449329393901
8.826929598485474,0.3346750518399177
8.846983823036334,0.3947449329393901
8.867038047587195,0.3175122286686399
8.887092272138053,0.403326344525029
8.907146496688915,0.30034940549736205
8.927200721239775,0.3260936402542788
8.947254945790636,0.28318658232608424
8.967309170341494,0.3346750518399177
8.987363394892354,0.3432564634255566
9.007417619443215,0.27460517074044527
9.027471843994075,0.3775821097681123
9.047526068544936,0.2231167012266118
9.067580293095794,0.26602375915480636
9.087634517646654,0.2231167012266118
9.107688742197515,0.3260936402542788
9.127742966748375,0.42907057928194575
9.147797191299235,0.4376519908675847
9.167851415850095,0.42907057928194575
9.187905640400956,0.6521872805085576
9.207959864951816,0.5148846951383349
9.228014089502675,0.5749545762378073
9.248068314053535,0.5921173994090851
9.268122538604395,0.8238155122213359
9.288176763155256,0.5835359878234463
9.308230987706116,0.506303283552696
9.328285212256974,0.4891404603814182
9.348339436807835,0.3690006981824734
9.368393661358695,0.29176799391172314
9.388447885909557,0.3861635213537512
9.408502110460416,0.25744234756916745
9.428556335011276,0.30034940549736205
9.448610559562136,0.26602375915480636
9.468664784112995,0.3518378750111955
9.488719008663857,0.3260936402542788
9.508773233214715,0.26602375915480636
9.528827457765576,0.30034940549736205
9.548881682316436,0.24027952439788963
9.568935906867297,0.26602375915480636
9.588990131418155,0.3175122286686399
9.609044355969015,0.26602375915480636
9.629098580519877,0.26602375915480636
9.649152805070736,0.3861635213537512
9.669207029621598,0.3775821097681123
9.689261254172456,0.26602375915480636
9.709315478723315,0.28318658232608424
9.729369703274177,0.26602375915480636
9.749423927825037,0.3518378750111955
9.769478152375896,0.20595387805533397
9.789532376926756,0.3518378750111955
9.809586601477617,0.2231167012266118
9.829640826028477,0.30893081708300096
9.849695050579337,0.28318658232608424
9.869749275130197,0.24886093598352854
9.889803499681056,0.23169811281225072
9.909857724231918,0.24886093598352854
9.929911948782777,0.29176799391172314
9.949966173333635,0.26602375915480636
9.970020397884497,0.19737246646969506
9.990074622435356,0.28318658232608424
10.010128846986218,0.28318658232608424
10.030183071537076,0.19737246646969506
10.050237296087937,0.18020964329841724
10.070291520638797,0.24027952439788963
10.090345745189657,0.21453528964097288
10.110399969740518,0.2231167012266118
10.130454194291376,0.24027952439788963
10.150508418842238,0.3260936402542788
10.170562643393097,0.24027952439788963
10.190616867943957,0.28318658232608424
10.210671092494817,0.21453528964097288
10.230725317045676,0.24027952439788963
10.250779541596538,0.2231167012266118
10.270833766147398,0.26602375915480636
10.290887990698259,0.27460517074044527
10.310942215249117,0.30893081708300096
10.330996439799977,0.46339622562450145
10.351050664350838,0.5320475183096127
10.371104888901698,0.815234100635697
10.391159113452558,1.1413277408899758
10.411213338003417,1.6991194939565053
10.431267562554279,2.5830048872773137
10.451321787105138,3.466890280598122
10.471376011655998,3.9388679178082624
10.491430236206858,4.616799433073736
10.511484460757718,5.895429759333935
10.531538685308579,6.2215233995882135
10.551592909859439,4.977218719670571
10.571647134410297,5.234661067239738
10.591701358961158,4.3851013202614855
10.611755583512018,3.87879803670879
10.63180980806288,2.6859818263049804
10.651864032613737,2.0166317226251453
10.671918257164599,1.0383508018623089
10.691972481715458,0.7980712774644192
10.712026706266318,0.5921173994090851
10.73208093081718,0.42907057928194575
10.752135155368038,0.3432564634255566
10.772189379918899,0.26602375915480636
10.792243604469759,0.3861635213537512
10.812297829020618,0.18020964329841724
10.832352053571478,0.3604192865968345
10.852406278122338,0.30893081708300096
10.8724605026732,0.3175122286686399
10.892514727224059,0.25744234756916745
10.91256895177492,0.29176799391172314
10.932623176325778,0.24886093598352854
