Energy (keV),Intensity (cps),slope,offset,liveTime
-0.017151942676154424,0.0,20.056463182735136,-17.151942676154423,57.14314651489258
0.002904520506580713,0.0
0.022960983689315848,0.0
0.04301744687205098,0.0
0.06307391005478613,0.0
0.08313037323752127,0.0
0.1031868364202564,0.0
0.12324329960299153,0.0
0.14329976278572668,0.0
0.1633562259684618,0.0
0.18341268915119696,0.0
0.20346915233393206,0.0
0.22352561551666722,0.0
0.24358207869940235,0.0
0.2636385418821375,0.0
0.28369500506487266,0.0
0.30375146824760774,0.0
0.32380793143034287,0.0
0.34386439461307805,0.0
0.3639208577958132,0.0
0.3839773209785483,0.0
0.40403378416128344,0.0
0.42409024734401857,0.0
0.44414671052675375,0.0
0.4642031737094888,0.0
0.48425963689222395,0.01749991138026292
0.5043161000749591,0.13999929104210335
0.5243725632576942,0.24499875932368087
0.5444290264404293,0.6299968096894651
0.5644854896231645,0.9974949486749864
0.5845419528058996,1.1199943283368268
0.6045984159886347,2.1174892770118134
0.6246548791713699,2.5199872387578606
0.644711342354105,2.9399851118841704
0.6647678055368401,4.339978022305204
0.6848242687195754,5.162473857177561
0.7048807319023105,5.827470489627552
0.7249371950850456,6.947464817964379
0.7449936582677806,7.174963665907797
0.7650501214505158,7.682461095935421
0.785106584633251,8.767455601511722
0.8051630478159861,8.014959412160417
0.8252195109987213,8.907454892553826
0.8452759741814564,8.259958171484097
0.8653324373641915,8.119958880441995
0.8853889005469266,8.242458260103835
0.9054453637296619,8.977454538074877
0.9255018269123969,8.697455955990671
0.945558290095132,8.592456487709093
0.9656147532778672,8.959954626694614
0.9856712164606023,7.857460209738051
1.0057276796433374,7.717460918695948
1.0257841428260726,8.417457373906464
1.0458406060088077,8.609956399089356
1.0658970691915428,8.627456310469618
1.085953532374278,8.049959234920943
1.106009995557013,7.804960475597262
1.1260664587397482,7.874960121118313
1.1461229219224833,8.522456842188042
1.1661793851052187,8.03245932354068
1.1862358482879538,7.664961184555159
1.206292311470689,7.804960475597262
1.226348774653424,7.787460564216999
1.2464052378361592,7.664961184555159
1.2664617010188943,8.312457905624887
1.2865181642016295,7.19246357728806
1.3065746273843646,8.27745808286436
1.3266310905670995,7.822460386977525
1.3466875537498346,7.874960121118313
1.3667440169325697,7.857460209738051
1.386800480115305,7.769960652836736
1.4068569432980402,7.507461982132792
1.4269134064807754,8.522456842188042
1.4469698696635105,7.664961184555159
1.4670263328462456,8.382457551145938
1.4870827960289807,8.609956399089356
1.5071392592117159,8.189958525963046
1.527195722394451,7.962459678019628
1.5472521855771861,7.647461273174896
1.5673086487599213,6.999964552105168
1.5873651119426566,7.4199624252314775
1.6074215751253917,7.1049640203867455
1.6274780383081269,7.174963665907797
1.6475345014908618,7.664961184555159
1.667590964673597,8.137458791822258
1.687647427856332,8.487457019427517
1.7077038910390672,8.417457373906464
1.7277603542218023,10.359947537115648
1.7478168174045374,8.592456487709093
1.7678732805872726,9.274953031539347
1.7879297437700077,7.892460032498577
1.807986206952743,8.592456487709093
1.8280426701354782,7.874960121118313
1.8480991333182133,8.049959234920943
1.8681555965009484,8.417457373906464
1.8882120596836836,8.662456133230146
1.9082685228664187,7.822460386977525
1.9283249860491538,8.679956044610408
1.948381449231889,7.90995994387884
1.9684379124146238,8.434957285286727
1.988494375597359,7.962459678019628
2.0085508387800943,8.417457373906464
2.0286073019628295,8.347457728385413
2.048663765145565,7.822460386977525
2.0687202283283,7.752460741456473
2.0887766915110353,8.382457551145938
2.1088331546937704,7.892460032498577
2.1288896178765055,7.384962602470952
2.1489460810592402,7.699961007315684
2.1690025442419754,7.629961361794633
2.1890590074247105,7.682461095935421
2.2091154706074456,7.069964197626219
2.2291719337901807,7.804960475597262
2.249228396972916,7.5424618048933185
2.269284860155651,7.5424618048933185
2.289341323338386,8.977454538074877
2.3093977865211213,7.297463045569637
2.3294542497038564,8.347457728385413
2.349510712886592,7.332462868330163
2.369567176069327,7.43746233661174
2.3896236392520622,7.157463754527534
2.4096801024347974,6.632466413119646
2.4297365656175325,7.069964197626219
2.4497930288002676,7.262463222809111
2.4698494919830027,6.7899656155420125
2.489905955165738,6.107469071711759
2.509962418348473,7.262463222809111
2.530018881531208,6.562466767598595
2.5500753447139433,6.824965438302539
2.5701318078966784,7.209963488668323
2.5901882710794135,6.89496508382359
2.6102447342621486,6.9824646407249045
2.6303011974448838,6.807465526922275
2.650357660627619,6.5974665903591205
2.670414123810354,7.122463931767008
2.690470586993089,7.034964374865694
2.7105270501758243,6.229968451373599
2.7305835133585594,5.914970046528866
2.7506399765412946,6.64996632449991
2.77069643972403,6.317468008274914
2.790752902906765,6.089969160331496
2.8108093660895,5.809970578247289
2.830865829272235,5.827470489627552
2.85092229245497,6.64996632449991
2.8709787556377053,6.47496721069728
2.8910352188204405,6.439967387936754
2.9110916820031756,6.439967387936754
2.9311481451859107,6.684966147260435
2.951204608368646,6.387467653795966
2.971261071551381,6.107469071711759
2.991317534734116,6.1599688058525475
3.0113739979168512,6.1599688058525475
3.0314304610995864,5.722471021345974
3.0514869242823215,5.21497359131835
3.0715433874650566,5.284973236839401
3.0915998506477917,5.459972350642031
3.111656313830527,5.599971641684134
3.131712777013262,5.599971641684134
3.151769240195997,4.707476161290725
3.1718257033787323,4.91747509785388
3.191882166561468,5.074974300276247
3.211938629744203,4.79497571819204
3.231995092926938,4.899975186473617
3.2520515561096732,4.654976427149936
3.2721080192924084,5.21497359131835
3.2921644824751435,5.3374729709801905
3.3122209456578786,5.3374729709801905
3.3322774088406137,5.127474034417036
3.352333872023349,5.074974300276247
3.372390335206084,4.654976427149936
3.392446798388819,4.707476161290725
3.4125032615715543,4.707476161290725
3.432559724754289,4.25247846540389
3.452616187937024,4.234978554023627
3.472672651119759,3.7974807695170534
3.4927291143024943,4.059979440220998
3.5127855774852295,3.7974807695170534
3.5328420406679646,3.9724798833196826
3.5528985038506997,3.9724798833196826
3.572954967033435,6.64996632449991
3.59301143021617,9.134953740497243
3.613067893398905,14.542426356998487
3.6331243565816407,23.887379034058885
3.653180819764376,32.86483357213376
3.673237282947111,43.364780400291515
3.693293746129846,45.07977171555728
3.713350209312581,39.18230158040868
3.7334066724953163,32.19983693968377
3.7534631356780515,21.384891706681287
3.7735195988607866,12.459936902747199
3.7935760620435217,7.069964197626219
3.813632525226257,4.37497784506573
3.833688988408992,3.464982453292058
3.853745451591727,3.254983516728903
3.8738019147744622,3.254983516728903
3.8938583779571974,3.062484491546011
3.9139148411399325,3.499982276052584
3.9339713043226676,4.287478288164415
3.9540277675054027,5.424972527881505
3.974084230688138,6.9824646407249045
3.994140693870873,8.32995781700515
4.014197157053608,9.309952854299873
4.034253620236343,8.067459146301205
4.054310083419079,7.367462691090689
4.074366546601814,5.564971818923608
4.094423009784548,3.3774828963907435
4.114479472967284,2.5724869728986492
4.1345359361500185,2.4149877704762828
4.1545923993327545,2.5374871501381233
4.174648862515489,1.6099918469841885
4.194705325698225,1.8374906949276064
4.214761788880959,1.8024908721670807
4.234818252063695,1.749991138026292
4.254874715246429,1.7674910494065548
4.274931178429165,1.6099918469841885
4.2949876416119,1.5399922014631369
4.3150441047946355,1.3999929104210336
4.335100567977371,1.749991138026292
4.355157031160106,1.7674910494065548
4.375213494342841,1.4524926445618223
4.395269957525576,1.8199907835473437
4.415326420708311,2.607486795659175
4.435382883891045,3.3774828963907435
4.455439347073781,5.197473679938087
4.475495810256516,5.669971287205186
4.495552273439252,6.5974665903591205
4.515608736621986,7.139963843147271
4.535665199804722,6.5974665903591205
4.555721662987456,5.3374729709801905
4.575778126170192,4.567476870248622
4.595834589352926,3.5874818329538987
4.6158910525356625,3.1499840484473256
4.635947515718397,3.622481655714424
4.656003978901133,3.65748147847495
4.676060442083867,2.9224852005039077
4.696116905266603,2.5024873273775974
4.716173368449338,1.8549906063078694
4.736229831632073,1.8199907835473437
4.756286294814808,1.277493530759193
4.7763427579975435,1.294993442139456
4.796399221180279,1.2599936193789303
4.816455684363014,1.5049923787026112
4.836512147545749,1.277493530759193
4.856568610728484,1.714991315265766
4.876625073911219,2.0824894542512875
4.896681537093954,2.5199872387578606
4.916738000276689,2.362488036335494
4.9367944634594245,2.4674875046170714
4.95685092664216,2.9749849346446964
4.976907389824895,2.2749884794341795
4.99696385300763,2.0824894542512875
5.017020316190365,1.2599936193789303
5.0370767793731,1.4174928218012965
5.057133242555834,1.1549941510973527
5.07718970573857,0.9274953031539347
5.097246168921305,1.1024944169565638
5.117302632104041,0.6999964552105168
5.137359095286776,0.9974949486749864
5.157415558469511,0.8924954803934089
5.177472021652246,0.9799950372947235
5.197528484834981,0.9449952145341977
5.217584948017716,1.084994505576301
5.2376414112004515,1.0499946828157751
5.257697874383187,1.277493530759193
5.277754337565922,1.1549941510973527
5.297810800748657,1.1724940624776157
5.317867263931392,1.5399922014631369
5.337923727114127,1.4874924673223482
5.357980190296862,1.3824929990407706
5.378036653479597,2.0124898087302356
5.3980931166623325,1.6099918469841885
5.418149579845068,1.8724905176881323
5.438206043027803,1.732491226646029
5.458262506210538,1.5399922014631369
5.478318969393273,0.9799950372947235
5.498375432576008,0.9799950372947235
5.518431895758743,0.8224958348723572
5.538488358941478,0.6999964552105168
5.558544822124214,0.874995569013146
5.578601285306949,0.9449952145341977
5.598657748489685,0.647496721069728
5.618714211672419,0.7699961007315684
5.638770674855155,0.664996632449991
5.658827138037889,0.6299968096894651
5.678883601220625,0.7349962779710426
5.698940064403359,0.6299968096894651
5.718996527586095,0.5599971641684134
5.73905299076883,0.7524961893513056
5.759109453951565,1.1374942397170897
5.7791659171343,1.6449916697447144
5.799222380317035,2.39748785909602
5.81927884349977,3.622481655714424
5.839335306682505,4.987474743374932
5.8593917698652405,6.544966856218331
5.879448233047976,7.6124614504143695
5.899504696230711,7.979959589399892
5.919561159413446,7.174963665907797
5.939617622596181,6.5974665903591205
5.959674085778916,4.147478997122312
5.979730548961652,3.1674839598275883
5.999787012144386,1.8899904290683953
6.019843475327122,1.6974914038855031
6.039899938509857,1.5749920242236628
6.059956401692593,1.084994505576301
6.080012864875327,1.3474931762802447
6.100069328058063,1.4699925559420852
6.120125791240797,1.6099918469841885
6.140182254423533,1.6799914925052402
6.160238717606267,2.2399886566736535
6.180295180789003,2.4674875046170714
6.200351643971738,3.919980149178894
6.220408107154474,8.03245932354068
6.240464570337208,16.939914216094508
6.260521033519944,35.507320190553465
6.280577496702678,70.3671436600372
6.300633959885414,133.76932259072976
6.320690423068148,216.28140474866942
6.3407468862508845,325.8658498118758
6.360803349433619,429.25532624646917
6.380859812616354,509.1249217859891
6.40091627579909,540.2922639542373
6.420972738981824,507.322430913822
6.44102920216456,423.16535708613765
6.461085665347294,318.0958891590391
6.48114212853003,213.30641981402474
6.501198591712765,127.71435325315879
6.521255054895501,69.43964835688327
6.541311518078235,34.317326216695584
6.561367981260971,14.612426002519538
6.581424444443705,7.717460918695948
6.601480907626441,4.0074797060802085
6.621537370809175,2.2749884794341795
6.641593833991911,1.8899904290683953
6.661650297174646,1.8199907835473437
6.681706760357382,1.6449916697447144
6.701763223540116,1.6449916697447144
6.721819686722852,1.6624915811249774
6.741876149905586,1.8024908721670807
6.761932613088322,1.714991315265766
6.781989076271056,2.0824894542512875
6.802045539453792,2.187488922532865
6.822102002636527,2.4499875932368087
6.842158465819263,2.81748573222233
6.862214929001998,3.097484314306537
6.882271392184733,5.6524713758249225
6.902327855367468,8.714955867370934
6.922384318550203,12.984934244155086
6.942440781732938,21.734889934286546
6.9624972449156735,33.074832508696915
6.982553708098409,48.17725602986382
7.002610171281143,66.20216475153462
7.022666634463879,79.43209775501339
7.042723097646613,89.96704440593167
7.062779560829349,91.43703696187376
7.082836024012083,84.55957178943042
7.102892487194819,69.754646761728
7.122948950377554,52.16723582456376
7.14300541356029,36.364815848186346
7.163061876743024,21.69989011152602
7.18311833992576,11.63744106787484
7.203174803108494,6.422467476556491
7.22323126629123,3.324983162249955
7.243287729473964,1.6974914038855031
7.2633441926567,0.9449952145341977
7.2834006558394355,0.6299968096894651
7.303457119022171,0.6824965438302538
7.323513582204906,0.40249796174604713
7.343570045387641,0.5249973414078876
7.363626508570376,0.6824965438302538
7.383682971753111,0.664996632449991
7.403739434935846,0.5774970755486764
7.423795898118581,0.5074974300276247
7.4438523613013166,0.9274953031539347
7.463908824484052,0.664996632449991
7.483965287666787,0.6824965438302538
7.504021750849522,0.8049959234920943
7.524078214032257,0.6124968983092022
7.544134677214992,0.5424972527881505
7.564191140397727,0.40249796174604713
7.5842476035804625,0.5249973414078876
7.604304066763198,0.41999787312631004
7.624360529945933,0.40249796174604713
7.644416993128668,0.48999751864736174
7.664473456311402,0.437497784506573
7.684529919494138,0.48999751864736174
7.704586382676873,0.5074974300276247
7.724642845859608,0.5599971641684134
7.7446993090423435,0.41999787312631004
7.764755772225079,0.6299968096894651
7.784812235407814,0.4549976958868359
7.804868698590549,0.5774970755486764
7.824925161773284,0.6124968983092022
7.844981624956019,0.47249760726709883
7.865038088138754,1.0324947714355122
7.885094551321489,0.6824965438302538
7.9051510145042245,0.857495657632883
7.92520747768696,1.1549941510973527
7.945263940869695,1.8899904290683953
7.96532040405243,2.782485909461804
7.985376867235165,3.0799844029262737
8.0054333304179,3.6399815670946873
8.025489793600636,4.339978022305204
8.04554625678337,3.674981389855213
8.065602719966106,3.727481123996002
8.08565918314884,3.23748360534864
8.105715646331577,2.432487681856546
8.125772109514312,1.732491226646029
8.145828572697047,1.7674910494065548
8.165885035879782,0.9974949486749864
8.185941499062517,0.6824965438302538
8.20599796224525,0.647496721069728
8.226054425427987,0.5074974300276247
8.24611088861072,0.6124968983092022
8.266167351793456,0.5424972527881505
8.286223814976191,0.3499982276052584
8.306280278158926,0.3849980503657842
8.326336741341661,0.3849980503657842
8.346393204524396,0.48999751864736174
8.366449667707132,0.3849980503657842
8.386506130889867,0.5249973414078876
8.406562594072602,0.41999787312631004
8.426619057255337,0.48999751864736174
8.446675520438072,0.5599971641684134
8.466731983620807,0.5074974300276247
8.486788446803542,0.664996632449991
8.506844909986278,0.6999964552105168
8.526901373169013,0.874995569013146
8.546957836351748,1.3474931762802447
8.567014299534483,1.749991138026292
8.587070762717218,1.5924919356039255
8.607127225899955,2.0124898087302356
8.627183689082688,2.152489099772339
8.647240152265423,2.0824894542512875
8.667296615448159,1.6799914925052402
8.687353078630895,1.924990251828921
8.707409541813629,1.277493530759193
8.727466004996364,0.9799950372947235
8.747522468179099,0.9274953031539347
8.767578931361836,0.664996632449991
8.78763539454457,0.6999964552105168
8.807691857727304,0.647496721069728
8.82774832091004,0.6999964552105168
8.847804784092776,0.8924954803934089
8.86786124727551,0.8399957462526201
8.887917710458245,0.8224958348723572
8.90797417364098,1.067494594196038
8.928030636823717,1.067494594196038
8.94808710000645,0.9799950372947235
8.968143563189185,0.6824965438302538
8.988200026371922,0.6124968983092022
9.008256489554656,0.7699961007315684
9.02831295273739,0.5774970755486764
9.048369415920126,0.47249760726709883
9.068425879102863,0.5599971641684134
9.088482342285596,0.40249796174604713
9.108538805468331,0.664996632449991
9.128595268651067,0.437497784506573
9.148651731833803,0.3849980503657842
9.168708195016537,0.7349962779710426
9.188764658199272,0.8224958348723572
9.208821121382007,1.0324947714355122
9.228877584564744,0.857495657632883
9.248934047747477,1.0324947714355122
9.268990510930212,0.9449952145341977
9.289046974112948,0.9799950372947235
9.309103437295684,0.6999964552105168
9.329159900478418,0.8399957462526201
9.349216363661153,0.647496721069728
9.369272826843888,0.5249973414078876
9.389329290026625,0.40249796174604713
9.409385753209358,0.437497784506573
9.429442216392093,0.5074974300276247
9.44949867957483,0.48999751864736174
9.469555142757565,0.5249973414078876
9.489611605940299,0.5424972527881505
9.509668069123034,0.5074974300276247
9.52972453230577,0.7524961893513056
9.549780995488506,0.8399957462526201
9.56983745867124,0.8049959234920943
9.589893921853974,0.5949969869289392
9.609950385036711,0.5424972527881505
9.630006848219445,0.2624986707039438
9.65006331140218,0.5949969869289392
9.670119774584915,0.6999964552105168
9.690176237767652,0.5074974300276247
9.710232700950385,0.5949969869289392
9.73028916413312,0.41999787312631004
9.750345627315856,0.48999751864736174
9.770402090498592,0.40249796174604713
9.790458553681326,0.5074974300276247
9.810515016864061,0.2799985820842067
9.830571480046798,0.5074974300276247
9.850627943229533,0.3849980503657842
9.870684406412266,0.31499840484473257
9.890740869595001,0.2974984934644696
9.910797332777738,0.3674981389855213
9.930853795960473,0.3324983162249955
9.950910259143207,0.47249760726709883
9.970966722325942,0.3674981389855213
9.991023185508679,0.437497784506573
10.011079648691414,0.40249796174604713
10.031136111874147,0.24499875932368087
10.051192575056882,0.3674981389855213
10.07124903823962,0.3324983162249955
10.091305501422354,0.2799985820842067
10.111361964605088,0.3674981389855213
10.131418427787823,0.2799985820842067
10.15147489097056,0.2974984934644696
10.171531354153295,0.3674981389855213
10.191587817336028,0.48999751864736174
10.211644280518763,0.3324983162249955
10.2317007437015,0.3849980503657842
10.251757206884234,0.3499982276052584
10.271813670066969,0.3324983162249955
10.291870133249706,0.31499840484473257
10.311926596432441,0.4549976958868359
10.331983059615174,0.3674981389855213
10.35203952279791,0.48999751864736174
10.372095985980646,0.5074974300276247
10.392152449163381,0.3849980503657842
10.412208912346115,0.2974984934644696
10.43226537552885,0.3324983162249955
10.452321838711587,0.3674981389855213
10.472378301894322,0.4549976958868359
10.492434765077055,0.2974984934644696
10.51249122825979,0.3674981389855213
10.532547691442527,0.2974984934644696
10.552604154625262,0.3674981389855213
10.572660617807996,0.5249973414078876
10.592717080990731,0.3674981389855213
10.612773544173468,0.3324983162249955
10.632830007356203,0.4549976958868359
10.652886470538936,0.2974984934644696
10.672942933721671,0.47249760726709883
10.692999396904408,0.2624986707039438
10.713055860087144,0.3499982276052584
10.733112323269877,0.2974984934644696
10.753168786452614,0.437497784506573
10.773225249635349,0.4549976958868359
10.793281712818084,0.5949969869289392
10.813338176000817,0.3324983162249955
10.833394639183554,0.2624986707039438
10.85345110236629,0.437497784506573
10.873507565549023,0.41999787312631004
10.893564028731758,0.2799985820842067
10.913620491914495,0.4549976958868359
10.93367695509723,0.3849980503657842
10.953733418279963,0.3499982276052584
10.973789881462698,0.20999893656315502
