Energy (keV),Intensity (cps),slope,offset,liveTime
-0.016753362679535415,0.0,20.051730854418228,-16.753362679535414,21.921924591064453
0.003298368174882814,0.0
0.023350099029301043,0.0
0.043401829883719274,0.0
0.0634535607381375,0.0
0.08350529159255572,0.0
0.10355702244697396,0.0
0.12360875330139219,0.0
0.14366048415581043,0.0
0.16371221501022865,0.0
0.18376394586464687,0.0
0.2038156767190651,0.0
0.2238674075734833,0.0
0.24391913842790156,0.0
0.2639708692823198,0.0
0.28402260013673797,0.0
0.3040743309911562,0.0
0.32412606184557446,0.0
0.34417779269999266,0.0
0.3642295235544109,0.0
0.3842812544088291,0.0
0.40433298526324735,0.0
0.42438471611766554,0.0
0.4444364469720838,0.1368492984061638
0.4644881778265021,0.0
0.4845399086809203,0.6386300592287645
0.5045916395353385,2.098355908894512
0.5246433703897568,6.477533457891754
0.544695101244175,12.362053289356798
0.5647468320985932,17.562326628791023
0.5847985629530115,15.327121421490347
0.6048502938074297,9.625067321233521
0.624902024661848,6.979314218714355
0.6449537555162661,6.9336977859123
0.6650054863706844,10.902327439691051
0.6850572172251026,16.969313002364313
0.7051089480795208,20.071230432904027
0.725160678933939,21.89588774498621
0.7452124097883572,20.162463298508136
0.7652641406427755,17.653559494395132
0.7853158714971937,16.14821721192733
0.805367602351612,15.737669316708839
0.8254193332060301,15.874518615115003
0.8454710640604484,17.83602522560335
0.8655227949148666,18.42903885203006
0.8855745257692849,21.576572715371828
0.9056262566237031,27.91725687485742
0.9256779874781212,30.289311380564257
0.9457297183325396,33.89300957192657
0.9657814491869579,31.657804364625896
0.9858331800413761,27.552325412440982
1.0058849108957943,19.979997567299918
1.0259366417502125,19.751915403289644
1.0459883726046306,21.074791954549227
1.0660401034590488,25.86451739876496
1.086091834313467,25.04342160832798
1.1061435651678853,24.76972301151565
1.1261952960223034,23.720545057068396
1.1462470268767218,22.534517804214975
1.16629875773114,23.08191499783963
1.1863504885855582,32.38766728945877
1.2064022194399764,40.23369373141216
1.2264539502943947,51.91150052873814
1.2465056811488127,55.01341795927785
1.266557412003231,46.30067929408543
1.2866091428576494,36.26506407763341
1.3066608737120675,26.594380323597836
1.3267126045664859,19.751915403289644
1.346764335420904,16.74123083835404
1.3668160662753224,19.386983940873208
1.3868677971297405,19.751915403289644
1.4069195279841589,22.67136710262114
1.4269712588385768,33.71054384071835
1.4470229896929951,49.49382959022925
1.4670747205474133,67.4210876814367
1.4871264514018316,69.65629288873738
1.5071781822562498,57.61355462899497
1.5272299131106681,43.016296132337494
1.5472816439650863,31.20164003660535
1.5673333748195046,23.857394355474558
1.5873851056739228,24.313558683495103
1.6074368365283411,26.36629815958756
1.627488567382759,47.48670654693884
1.6475402982371774,110.30053451536803
1.6675920290915955,290.75914268029607
1.687643759946014,617.4640344086112
1.707695490800432,1014.3269997864862
1.7277472216548504,1289.5309388812816
1.7477989525092685,1246.7427249129544
1.767850683363687,937.0983790526077
1.787902414218105,560.3066441076367
1.8079541450725232,291.76270420194123
1.8280058759269413,158.33463825593154
1.8480576067813597,104.55286398230915
1.8681093376357778,73.35122394570381
1.8881610684901962,54.237938601642924
1.9082127993446145,51.82026766313403
1.9282645301990327,50.99917187269705
1.948316261053451,51.86588409593609
1.9683679919078692,56.38191094333949
1.9884197227622873,54.967801526475796
2.0084714536167056,60.12245843310797
2.028523184471124,61.445334984367555
2.0485749153255424,60.94355422354495
2.0686266461799607,60.66985562673263
2.0886783770343786,65.14026604133397
2.1087301078887966,62.038348610794266
2.1287818387432154,65.14026604133397
2.1488335695976333,76.17944277943118
2.1688853004520516,140.36176373192203
2.1889370313064695,370.9984479791101
2.2089887621608884,1066.5578153448387
2.2290404930153063,2742.0950085971062
2.2490922238697246,5822.435866421448
2.2691439547241425,9937.129338032377
2.289195685578561,13509.580272925283
2.3092474164329793,14527.830285932747
2.329299147287397,12380.345478910422
2.3493508781418155,8445.152670375577
2.369402608996234,4713.774083600312
2.3894543398506523,2306.594924635891
2.40950607070507,1334.6912073553158
2.4295578015594885,1153.8676677279711
2.449609532413907,1217.4569750540354
2.469661263268325,1209.2004007168634
2.489712994122743,998.8630290665897
2.509764724977161,683.37977980758
2.52981645583158,408.5863886080031
2.549868186685998,236.5212040786531
2.569919917540416,163.35244586415754
2.5899716483948345,180.68669032893828
2.610023379249253,269.31941926333036
2.630075110103671,445.21638414805295
2.6501268409580887,723.0660763453675
2.6701785718125075,978.1531685744569
2.6902303026669254,1135.6210946071494
2.710282033521344,1090.5064425659175
2.7303337643757617,892.3942749065942
2.7503854952301805,678.9093693929786
2.7704372260845984,542.6987010460437
2.7904889569390168,538.1826741986403
2.8105406877934347,602.3649951511311
2.830592418647853,675.5793697984287
2.8506441495022714,664.8595080899458
2.8706958803566893,618.4219794974542
2.8907476112111077,591.4170512786379
2.910799342065526,620.4291025407447
2.9308510729199444,673.0704659943157
2.9509028037743623,714.1708719489669
2.9709545346287807,673.1616988599199
2.991006265483199,560.5803427044491
3.011057996337617,400.37543070363324
3.0311097271920353,273.0143503202968
3.0511614580464532,179.81997810569925
3.071213188900872,126.90491605531591
3.09126491975529,103.73176819187218
3.1113166506097083,109.93560305295159
3.131368381464126,117.82724592770704
3.151420112318545,130.14368278426178
3.171471843172963,129.7331348890433
3.1915235740273813,124.25916295279674
3.2115753048817997,116.09382148122897
3.2316270357362176,107.19861708482833
3.251678766590636,103.32122029665368
3.271730497445054,102.63697380462285
3.2917822282994726,110.5286166793783
3.3118339591538906,114.22354773634473
3.331885690008309,113.81299984112624
3.351937420862727,104.09669965428861
3.3719891517171456,90.45738624647429
3.3920408825715636,76.17944277943118
3.4120926134259815,70.93355300719492
3.4321443442804,60.35054059711824
3.452196075134818,54.14670573603882
3.4722478059892365,59.985609134701804
3.4922995368436545,57.15739030097442
3.512351267698073,61.9014993123881
3.532402998552491,71.20725160400724
3.5524547294069095,85.94135939907088
3.5725064602613275,116.3675200780413
3.5925581911157454,191.99956566384782
3.612609921970164,325.1083165802432
3.632661652824582,534.1228116792573
3.6527133836790004,767.9070297897872
3.6727651145334184,961.7768691985193
3.692816845387837,1046.9427492399552
3.712868576242255,953.9308427565659
3.7329203070966734,741.2670330333873
3.7529720379510914,512.3637732326773
3.7730237688055097,318.90448171916375
3.793075499659928,200.1649071354156
3.813127230514346,137.07738057017409
3.833178961368765,108.0197128752653
3.8532306922231827,103.77738462467423
3.873282423077601,104.18793251989271
3.893334153932019,106.28628842878723
3.913385884786438,119.42382107577896
3.9334376156408557,137.30546273418437
3.9534893464952736,171.56340376852737
3.973541077349692,206.0950433996827
3.9935928082041103,236.1562726162367
4.013644539058529,251.16407900811265
4.033696269912947,246.83051789191748
4.0537480007673645,228.03654757747097
4.073799731621784,183.1955941330513
4.093851462476201,154.548474333361
4.11390319333062,134.52286033325902
4.133954924185037,118.46587598693581
4.154006655039455,116.00258861562486
4.174058385893874,117.27984873408239
4.194110116748292,120.19930043341388
4.2141618476027105,124.3960122512029
4.234213578457128,132.2420386931563
4.254265309311547,131.5577922011255
4.274317040165966,136.62121624215354
4.294368771020383,139.95121583670354
4.314420501874801,144.512859116909
4.334472232729219,143.41806472965968
4.354523963583638,147.4323108162405
4.3745756944380565,155.0502550941836
4.394627425292474,163.12436370014726
4.414679156146892,171.24408873891298
4.434730887001312,186.7992923244136
4.454782617855729,209.65312515824297
4.474834348710147,240.21613513561954
4.494886079564566,260.0592834045133
4.514937810418983,277.71284289890843
4.5349895412734025,283.0499655367488
4.55504127212782,298.2858540926351
4.575093002982238,318.9957145847678
4.595144733836657,338.4739313912452
4.615196464691075,357.08543597448346
4.635248195545493,367.02981832533135
4.655299926399912,353.8010528127355
4.675351657254329,315.3463999606035
4.695403388108748,268.5439399056955
4.715455118963166,246.55681929510513
4.735506849817584,210.56545381428407
4.755558580672003,190.35737408297388
4.77561031152642,186.16066226518484
4.795662042380839,178.49710155443967
4.815713773235258,169.601897158039
4.835765504089675,165.58765107145823
4.855817234944094,169.9212121876534
4.875868965798511,167.68600698035272
4.89592069665293,172.4301159917664
4.915972427507349,173.9354582742342
4.936024158361766,177.63038933120063
4.9560758892161845,177.8584714952109
4.976127620070604,175.8513484519205
4.996179350925021,171.56340376852737
5.0162310817794395,164.31039095300068
5.036282812633857,160.02244626960754
5.056334543488275,152.4501184244665
5.076386274342695,158.92765188235825
5.096438005197112,154.82217293017334
5.1164897360515305,155.9625837502247
5.136541466905949,156.14504948143292
5.156593197760367,154.68532363176718
5.1766449286147855,155.32395369099592
5.196696659469204,158.88203544955618
5.216748390323621,160.11367913521167
5.236800121178041,167.18422621953013
5.256851852032458,175.07586909428557
5.276903582886876,197.5647704656985
5.296955313741295,230.77353354559423
5.317007044595712,283.2780477007591
5.3370587754501315,372.68625599278613
5.35711050630455,492.9767892918041
5.377162237158967,610.667185921105
5.397213968013386,684.5658070604335
5.417265698867803,705.2756675525662
5.437317429722222,651.9500576069644
5.457369160576641,541.5582902259923
5.477420891431058,438.0089877653283
5.497472622285477,322.7818785073384
5.517524353139896,246.6936685935113
5.537576083994313,197.7472361969067
5.557627814848732,175.8513484519205
5.577679545703149,163.35244586415754
5.597731276557568,162.16641861130412
5.617783007411987,158.4714875543377
5.637834738266404,162.34888434251235
5.657886469120823,158.28902182312947
5.677938199975241,169.64751359084107
5.697989930829659,174.30038973665066
5.718041661684078,173.29682821500543
5.738093392538495,174.80217049747324
5.7581451233929135,178.31463582323144
5.778196854247333,183.24121056585335
5.79824858510175,186.06942939958074
5.818300315956169,204.72655041562106
5.838352046810587,222.60819207402648
5.858403777665004,251.39216117212294
5.878455508519424,273.9266789763379
5.898507239373842,294.08914227484604
5.9185589702282595,306.31434626579664
5.938610701082678,310.28297591957545
5.958662431937096,299.10694988307205
5.978714162791515,287.6116088169543
5.998765893645933,265.1683238783434
6.01881762450035,241.72147741808735
6.038869355354769,226.394355996597
6.058921086209188,218.41148025623744
6.0789728170636055,217.5447680329984
6.099024547918024,216.67805580975937
6.119076278772441,223.93106862528606
6.139128009626861,230.59106781438604
6.159179740481279,248.65517520399965
6.179231471335696,280.72352746384405
6.199283202190115,348.14461514528074
6.219334933044533,543.2004818068663
6.2393866638989515,977.7882371120404
6.25943839475337,1904.3036037545714
6.279490125607787,3724.7642040189667
6.299541856462206,6732.529317255239
6.319593587316625,11158.874257769805
6.339645318171042,16678.508243251214
6.359697049025461,22151.020453648103
6.379748779879879,26466.973626781695
6.399800510734297,28118.151644917667
6.419852241588716,26733.28236148009
6.439903972443134,22612.293822142477
6.459955703297552,17102.102438251095
6.48000743415197,11512.40161198573
6.500059165006388,7015.807364955998
6.520110895860807,3874.70541863932
6.540162626715225,1969.4438697959056
6.5602143575696426,985.0412499275672
6.580266088424061,523.4485664035766
6.60031781927848,333.0455758878007
6.620369550132898,270.0036657553612
6.640421280987316,240.62668303083805
6.6604730118417335,235.01586179618533
6.680524742696153,235.56325898980998
6.700576473550571,233.78421811052985
6.7206282044049885,234.55969746816479
6.740679935259407,244.13914835659625
6.760731666113825,254.95024293068317
6.780783396968244,268.9088713681119
6.800835127822662,295.95941601973027
6.8208868586770794,336.9685891087774
6.840938589531498,396.77173251227094
6.860990320385917,474.77583260378435
6.8810420512403345,601.5895157934962
6.901093782094753,742.5899095846469
6.921145512949171,988.9642631485439
6.941197243803589,1313.342716803954
6.961248974658008,1818.9552579819274
6.981300705512425,2445.0864146229287
7.001352436366844,3189.8202965492724
7.021404167221262,3850.300627090221
7.0414558980756805,4311.391529853389
7.061507628930099,4361.660838801253
7.081559359784517,3983.6830766034286
7.101611090638935,3342.1791821081347
7.121662821493353,2510.545995693877
7.141714552347772,1729.6838989883065
7.16176628320219,1104.373838137742
7.181818014056608,644.2408804634172
7.201869744911026,372.0020095007553
7.221921475765445,219.64312394189292
7.241973206619863,150.8535432763946
7.262024937474281,122.93628640153716
7.282076668328699,120.01683470220567
7.302128399183117,144.0110783560864
7.322180130037536,199.11572918096834
7.342231860891954,315.4376328262076
7.362283591746372,504.47213035792186
7.38233532260079,782.9148361816632
7.402387053455209,1131.0594513269439
7.422438784309627,1502.6509129324807
7.442490515164045,1814.9866283281485
7.462542246018463,2020.5798909670086
7.482593976872881,2012.368933062639
7.5026457077273,1852.848267553854
7.522697438581718,1530.0207726137135
7.542749169436136,1174.0301310264795
7.562800900290554,819.4992152889109
7.582852631144973,535.1263732009025
7.602904361999391,340.0705065393171
7.622956092853809,228.03654757747097
7.643007823708227,164.94902101222945
7.663059554562645,130.96477857469878
7.6831112854170645,109.433822292129
7.703163016271482,102.63697380462285
7.7232147471259,93.96985157223249
7.743266477980318,90.50300267927634
7.763318208834737,84.75533214621746
7.783369939689155,80.01122313480377
7.803421670543573,78.2777986883257
7.823473401397991,78.00410009151338
7.84352513225241,83.06752413254144
7.863576863106828,86.89930448791402
7.883628593961246,100.53861789572835
7.903680324815664,130.0524499186577
7.923732055670082,171.19847230611094
7.943783786524501,237.251067003486
7.963835517378919,326.84174102672125
7.983887248233337,409.72679942805445
8.003938979087756,504.608979656328
8.023990709942174,559.8504797796162
8.044042440796591,598.4875983629564
8.064094171651009,567.6965062215695
8.084145902505428,513.0480197247082
8.104197633359847,439.2406314509838
8.124249364214265,367.25790048934164
8.144301095068682,313.293660484511
8.164352825923102,280.67791103104196
8.184404556777519,280.7691438966461
8.204456287631938,320.3642075688295
8.224508018486356,343.4917389994712
8.244559749340775,372.0020095007553
8.264611480195192,372.3213245303697
8.28466321104961,355.3976279608074
8.30471494190403,311.9251675004494
8.324766672758447,255.31517439309962
8.344818403612866,205.0002490124334
8.364870134467283,148.80080380030213
8.3849218653217,113.76738340832418
8.40497359617612,87.76601671115306
8.425025327030538,71.07040230560108
8.445077057884957,62.4032800732107
8.465128788739376,56.336294510537435
8.485180519593792,55.01341795927785
8.505232250448211,59.985609134701804
8.52528398130263,61.764650013981935
8.545335712157048,72.7582103192771
8.565387443011467,92.32765999135852
8.585439173865883,123.93984792318236
8.605490904720302,166.4087468618952
8.625542635574721,221.69586341798538
8.645594366429139,280.2673631358235
8.665646097283558,346.0918756691883
8.685697828137974,391.4802263072326
8.705749558992393,405.0739232822449
8.725801289846812,404.4352932230161
8.74585302070123,371.9107766351512
8.765904751555649,327.7996861155644
8.785956482410068,271.78270663464133
8.806008213264484,223.52052073006757
8.826059944118903,190.9503877094006
8.84611167497332,169.05449996441436
8.86616340582774,157.60477533109866
8.886215136682159,150.39737894837404
8.906266867536575,144.6040919825131
8.926318598390994,134.0666960052385
8.946370329245411,113.53930124431392
8.96642206009983,100.72108362693656
8.98647379095425,86.85368805511197
9.006525521808667,79.32697664277296
9.026577252663085,69.88437505274766
9.046628983517502,64.9121838773237
9.066680714371921,65.50519750375041
9.08673244522634,68.74396423269629
9.106784176080758,65.87012896616685
9.126835906935176,66.4175261597915
9.146887637789593,64.22793738529289
9.166939368644012,59.985609134701804
9.186991099498432,62.76821153562714
9.207042830352849,65.23149890693809
9.227094561207267,70.20369008236203
9.247146292061686,68.47026563588396
9.267198022916103,76.72683997305585
9.287249753770523,85.07464717583184
9.30730148462494,90.59423554488045
9.32735321547936,100.90354935814479
9.347404946333777,100.17368643331191
9.367456677188194,102.27204234220642
9.387508408042613,93.01190648338934
9.407560138897031,85.48519507105033
9.42761186975145,72.07396382724627
9.447663600605868,59.164513344264826
9.467715331460285,50.45177467907239
9.487767062314704,39.73191297058956
9.507818793169124,35.26150255598821
9.527870524023541,32.47890015506288
9.547922254877959,27.96287330765947
9.567973985732376,27.004928218816325
9.588025716586795,27.780407576451253
9.608077447441215,26.54876389079578
9.628129178295632,26.54876389079578
9.648180909150051,26.001366697171125
9.668232640004467,26.36629815958756
9.688284370858886,33.1631466470937
9.708336101713305,37.67917349449711
9.728387832567723,39.549447239381344
9.748439563422142,42.01273461069229
9.768491294276558,46.30067929408543
9.788543025130977,44.202323385190915
9.808594755985396,42.28643320750462
9.828646486839814,38.36341998652792
9.848698217694233,32.752598751875205
9.868749948548652,30.654242842980693
9.888801679403068,23.948627221078667
9.908853410257487,23.49246289305812
9.928905141111905,21.074791954549227
9.948956871966324,21.348490551361554
9.969008602820743,23.08191499783963
9.989060333675159,25.225887339536197
10.009112064529578,26.36629815958756
10.029163795383996,31.840270095834114
10.049215526238415,31.61218793182384
10.069267257092834,34.89657109357177
10.08931898794725,35.6720504512067
10.109370718801669,35.07903682477999
10.129422449656087,32.20520155825055
10.149474180510506,28.464654068482073
10.169525911364925,24.95218874272387
10.189577642219342,21.759038446580046
10.20962937307376,18.839586747248553
10.22968110392818,16.056984346323222
10.249732834782597,13.776162706220491
10.269784565637016,15.555203585500621
10.289836296491433,16.285066510333493
10.30988802734585,14.597258496657474
10.32993975820027,16.604381539947877
10.349991489054688,17.379860897582805
10.370043219909107,17.74479235999924
10.390094950763524,18.246573120821843
10.410146681617944,16.92369656956226
10.430198412472361,16.102600779125275
10.450250143326778,16.969313002364313
10.470301874181198,15.099039257480074
10.490353605035615,14.460409198251309
10.510405335890034,13.228765512595835
10.530457066744452,11.769039662930089
10.55050879759887,11.449724633315705
10.570560528453289,12.909450482981454
10.590612259307708,12.133971125346525
10.610663990162125,11.039176738097215
10.630715721016543,11.586573931721869
10.65076745187096,13.18314907979378
10.67081918272538,11.814656095732143
10.690870913579799,12.225203990950634
10.710922644434216,13.411231243804053
10.730974375288636,12.909450482981454
10.751026106143051,12.498902587762961
10.77107783699747,13.319998378199944
10.79112956785189,12.863834050179399
10.811181298706307,13.593696975012273
10.831233029560726,12.407669722158852
10.851284760415142,12.955066915783508
10.871336491269561,11.08479317089927
10.89138822212398,12.635751886169125
10.911439952978398,13.137532646991726
10.931491683832817,13.27438194539789
10.951543414687237,13.365614811001999
10.971595145541652,13.502464109408162
10.991646876396072,15.281504988688292
