Energy (keV),Intensity (cps),slope,offset,liveTime
-0.016753362679535415,0.0,20.051730854418228,-16.753362679535414,21.327177047729492
0.003298368174882814,0.0
0.023350099029301043,0.0
0.043401829883719274,0.0
0.0634535607381375,0.0
0.08350529159255572,0.0
0.10355702244697396,0.0
0.12360875330139219,0.0
0.14366048415581043,0.0
0.16371221501022865,0.0
0.18376394586464687,0.0
0.2038156767190651,0.0
0.2238674075734833,0.0
0.24391913842790156,0.0
0.2639708692823198,0.0
0.28402260013673797,0.0
0.3040743309911562,0.0
0.32412606184557446,0.0
0.34417779269999266,0.0
0.3642295235544109,0.0
0.3842812544088291,0.0
0.40433298526324735,0.0
0.42438471611766554,0.0
0.4444364469720838,0.0
0.4644881778265021,0.0
0.4845399086809203,0.32821971629598423
0.5045916395353385,2.1568724213736106
0.5246433703897568,5.204626929836321
0.544695101244175,11.675244193957152
0.5647468320985932,16.457874345698638
0.5847985629530115,15.707657851307816
0.6048502938074297,11.300135946761742
0.624902024661848,6.423728733221405
0.6449537555162661,6.892614042215668
0.6650054863706844,9.940368550678379
0.6850572172251026,16.832982592894048
0.7051089480795208,18.56785823617282
0.725160678933939,22.694048955322337
0.7452124097883572,20.584065064848154
0.7652641406427755,16.27032022210093
0.7853158714971937,15.004329887816422
0.805367602351612,14.535444578822158
0.8254193332060301,14.441667517023305
0.8454710640604484,16.879871123793475
0.8655227949148666,17.91141880358085
0.8855745257692849,20.021402694055038
0.9056262566237031,26.21068877277931
0.9256779874781212,31.649758357112763
0.9457297183325396,35.30706376726801
0.9657814491869579,33.33774546949211
0.9858331800413761,24.9446984384948
1.0058849108957943,22.64716042442291
1.0259366417502125,20.443399472149874
1.0459883726046306,21.850055399132664
1.0660401034590488,24.006927820506274
1.086091834313467,25.366695216589637
1.1061435651678853,24.522701660399964
1.1261952960223034,20.959173312043564
1.1462470268767218,21.662501275534957
1.16629875773114,22.88160307892004
1.1863504885855582,26.726462612673
1.2064022194399764,30.66509920822481
1.2264539502943947,33.8535193093858
1.2465056811488127,31.83731248071047
1.266557412003231,28.88333503404661
1.2866091428576494,21.99072099183094
1.3066608737120675,19.505628854161348
1.3267126045664859,19.130520606965938
1.346764335420904,16.832982592894048
1.3668160662753224,17.630087618184294
1.3868677971297405,21.61561274463553
1.4069195279841589,31.32153864081678
1.4269712588385768,48.34207535730853
1.4470229896929951,80.179387838019
1.4670747205474133,103.99876153492757
1.4871264514018316,113.23580212211455
1.5071781822562498,97.95014104890157
1.5272299131106681,65.55016619739799
1.5472816439650863,40.277248042607205
1.5673333748195046,29.492885935739153
1.5873851056739228,24.663367253098244
1.6074368365283411,25.08536403119308
1.627488567382759,35.447729359966296
1.6475402982371774,82.71136850658802
1.6675920290915955,201.9020140529297
1.687643759946014,429.54583156964446
1.707695490800432,702.7184125897022
1.7277472216548504,893.8829530666633
1.7477989525092685,854.4965871111452
1.767850683363687,650.4845891677413
1.787902414218105,395.8798663838564
1.8079541450725232,210.10750696032932
1.8280058759269413,115.53334013618644
1.8480576067813597,79.75739105992416
1.8681093376357778,62.87751993613069
1.8881610684901962,54.95335821412764
1.9082127993446145,57.57911594449551
1.9282645301990327,64.00284467771692
1.948316261053451,66.72237946988365
1.9683679919078692,62.502411688935275
1.9884197227622873,63.11196259062782
2.0084714536167056,62.549300219834706
2.028523184471124,61.89286078724274
2.0485749153255424,63.62773643052151
2.0686266461799607,65.08128088840373
2.0886783770343786,61.001978700153636
2.1087301078887966,64.3310643940129
2.1287818387432154,64.04973320861635
2.1488335695976333,79.80427959082358
2.1688853004520516,137.61783818981624
2.1889370313064695,362.7765635688614
2.2089887621608884,1023.9048492507725
2.2290404930153063,2636.588981005641
2.2490922238697246,5636.704742074535
2.2691439547241425,9640.141287329352
2.289195685578561,13157.671986873414
2.3092474164329793,14160.05500044135
2.329299147287397,12087.300603501311
2.3493508781418155,8266.026000790765
2.369402608996234,4591.418722733623
2.3894543398506523,2275.687958672757
2.40950607070507,1295.9989940601433
2.4295578015594885,1118.2445734204182
2.449609532413907,1176.714571452003
2.469661263268325,1151.6292074208097
2.489712994122743,951.9778428510525
2.509764724977161,662.1598333616985
2.52981645583158,396.53630581644836
2.549868186685998,232.75466738475222
2.569919917540416,172.54979370988883
2.5899716483948345,184.9283658673374
2.610023379249253,276.6892208375147
2.630075110103671,479.57589403933235
2.6501268409580887,762.2199583010741
2.6701785718125075,1037.1743034953101
2.6902303026669254,1204.1443620281673
2.710282033521344,1153.9267454348817
2.7303337643757617,956.6666959409952
2.7503854952301805,703.3279634913947
2.7704372260845984,571.5243031331073
2.7904889569390168,555.9573108744978
2.8105406877934347,630.7445176590828
2.830592418647853,677.4923829658109
2.8506441495022714,678.1957109293022
2.8706958803566893,622.8672444679792
2.8907476112111077,597.8287689676855
2.910799342065526,620.3821523303096
2.9308510729199444,685.3696561569144
2.9509028037743623,720.723608455082
2.9709545346287807,687.2451973928916
2.991006265483199,568.9923224645383
3.011057996337617,412.80662603854927
3.0311097271920353,268.62439352281336
3.0511614580464532,178.27019447961885
3.071213188900872,128.38079760262926
3.09126491975529,108.96894581026676
3.1113166506097083,106.7182963270943
3.131368381464126,116.89310753226981
3.151420112318545,126.13014811945679
3.171471843172963,136.39873638643115
3.1915235740273813,132.7414309762759
3.2115753048817997,124.77038072337342
3.2316270357362176,113.00135946761742
3.251678766590636,116.7055534086721
3.271730497445054,127.67746963913785
3.2917822282994726,148.54286588938257
3.3118339591538906,162.18742838111564
3.331885690008309,157.17035557487702
3.351937420862727,142.11913715616117
3.3719891517171456,121.95706886940785
3.3920408825715636,105.17097480741323
3.4120926134259815,88.29110368361975
3.4321443442804,79.14784015823162
3.452196075134818,72.25522611601595
3.4722478059892365,76.00630858797005
3.4922995368436545,79.38228281272875
3.512351267698073,83.27403087738114
3.532402998552491,97.43436720900789
3.5524547294069095,123.97327569808319
3.5725064602613275,197.4007150865848
3.5925581911157454,358.1345990098182
3.612609921970164,663.5196007577817
3.632661652824582,1139.1099696706628
3.6527133836790004,1676.0774255308932
3.6727651145334184,2126.9575386597767
3.692816845387837,2285.393884568938
3.712868576242255,2081.381886625534
3.7329203070966734,1603.915976476676
3.7529720379510914,1077.5453285997162
3.7730237688055097,632.3856162405627
3.793075499659928,339.0978554646511
3.813127230514346,196.0409476905014
3.833178961368765,142.25980274885944
3.8532306922231827,119.42508820083883
3.873282423077601,121.48818356041359
3.893334153932019,136.21118226283346
3.913385884786438,164.34430080248924
3.9334376156408557,211.70171701090982
3.9534893464952736,280.2996377167705
3.973541077349692,356.96238573733257
3.9935928082041103,428.84250360615306
4.013644539058529,455.85029740422266
4.033696269912947,441.4086298871993
4.0537480007673645,368.0749675604966
4.073799731621784,297.27328590236283
4.093851462476201,217.70344896603638
4.11390319333062,168.3767144598399
4.133954924185037,146.6673246534055
4.154006655039455,126.83347608294818
4.174058385893874,128.05257788633327
4.194110116748292,132.5538768526782
4.2141618476027105,127.30236139194244
4.234213578457128,131.75677182738795
4.254265309311547,130.16256177680745
4.274317040165966,138.7900514623019
4.294368771020383,136.25807079373288
4.314420501874801,145.16689166462388
4.334472232729219,149.10552826017567
4.354523963583638,154.21637812821317
4.3745756944380565,163.218976060903
4.394627425292474,175.59754821835156
4.414679156146892,221.92341674698474
4.434730887001312,281.8469592364516
4.454782617855729,374.0298109847237
4.474834348710147,452.9432084884582
4.494886079564566,538.0927806018163
4.514937810418983,554.8788746638111
4.5349895412734025,539.6869906523968
4.55504127212782,491.7200235422838
4.575093002982238,436.6728882663573
4.595144733836657,408.44599266490263
4.615196464691075,396.7707484709455
4.635248195545493,381.76641858312905
4.655299926399912,356.681054551936
4.675351657254329,319.5922266104898
4.695403388108748,283.8631660651269
4.715455118963166,246.86811518547955
4.735506849817584,211.93615966540693
4.755558580672003,194.7749573562169
4.77561031152642,184.88147733643797
4.795662042380839,176.72287295993777
4.815713773235258,175.92576793464752
4.835765504089675,178.78596831951253
4.855817234944094,186.10057913982305
4.875868965798511,205.69998505578326
4.89592069665293,216.81256687894728
4.915972427507349,225.95583040433542
4.936024158361766,244.38302304780996
4.9560758892161845,235.98997601681265
4.976127620070604,221.40764290709106
4.996179350925021,210.29506108392704
5.0162310817794395,193.04008171293813
5.036282812633857,176.81665002173665
5.056334543488275,169.87714744862154
5.076386274342695,165.46962554407546
5.096438005197112,163.547195777199
5.1164897360515305,163.64097283899784
5.136541466905949,165.65717966767318
5.156593197760367,171.89335427729688
5.1766449286147855,175.97265646554698
5.196696659469204,177.1448697380326
5.216748390323621,183.56859847125403
5.236800121178041,189.14833364828576
5.256851852032458,192.24297668764788
5.276903582886876,206.21575889567694
5.296955313741295,215.64035360646162
5.317007044595712,245.27390513489905
5.3370587754501315,291.0839998236386
5.35711050630455,339.51985224274597
5.377162237158967,386.6428257966694
5.397213968013386,424.9038670106013
5.417265698867803,430.0616054095382
5.437317429722222,418.8083579936758
5.457369160576641,370.23183998187017
5.477420891431058,306.744769144047
5.497472622285477,254.7922769074826
5.517524353139896,223.56451532846467
5.537576083994313,200.7766893113435
5.557627814848732,192.9931931820387
5.577679545703149,179.67685040660163
5.597731276557568,186.66324151061616
5.617783007411987,180.19262424649534
5.637834738266404,181.2241719262827
5.657886469120823,178.504637134116
5.677938199975241,182.34949666786895
5.697989930829659,180.2864013082942
5.718041661684078,178.17641741782
5.738093392538495,186.61635297971674
5.7581451233929135,183.28726728585747
5.778196854247333,196.93182977759054
5.79824858510175,200.07336134785209
5.818300315956169,219.11010489301918
5.838352046810587,227.78448310941303
5.858403777665004,244.2423574551117
5.878455508519424,268.99950177000875
5.898507239373842,281.1905198038596
5.9185589702282595,291.27155394723627
5.938610701082678,295.6321873208829
5.958662431937096,286.91092057358964
5.978714162791515,272.51614158746577
5.998765893645933,257.27736904515217
6.01881762450035,243.63280655341913
6.038869355354769,239.97550114326387
6.058921086209188,229.80068993808837
6.0789728170636055,229.70691287628952
6.099024547918024,230.87912614877519
6.119076278772441,235.23975952242182
6.139128009626861,248.9312105450543
6.159179740481279,270.0779379806956
6.179231471335696,309.9331892452079
6.199283202190115,405.6326808109371
6.219334933044533,603.924277984611
6.2393866638989515,1095.2691932796993
6.25943839475337,2147.166495477429
6.279490125607787,4197.2268434621465
6.299541856462206,7632.98394511761
6.319593587316625,12615.499904083348
6.339645318171042,18820.44675212803
6.359697049025461,25108.1518572102
6.379748779879879,29963.506120376693
6.399800510734297,31958.378667492787
6.419852241588716,30217.032406949893
6.439903972443134,25617.642633963365
6.459955703297552,19404.396515949487
6.48000743415197,13126.819333541593
6.500059165006388,7957.077470694445
6.520110895860807,4414.086298871994
6.540162626715225,2256.6981036584893
6.5602143575696426,1103.5684632488978
6.580266088424061,593.702578248536
6.60031781927848,377.45267374038184
6.620369550132898,298.7737188911445
6.640421280987316,261.82555654239655
6.6604730118417335,254.74538837658318
6.680524742696153,251.51007974452276
6.700576473550571,253.29184391870095
6.7206282044049885,255.30805074737629
6.740679935259407,266.7488522868363
6.760731666113825,260.3251235536149
6.780783396968244,280.7216344948653
6.800835127822662,296.851289124268
6.8208868586770794,322.3586499335559
6.840938589531498,360.19769436939293
6.860990320385917,423.6847652072162
6.8810420512403345,493.36112212376366
6.901093782094753,634.0736033529421
6.921145512949171,897.7747011313156
6.941197243803589,1278.6033490964562
6.961248974658008,1846.8454550666038
6.981300705512425,2601.2350287074737
7.001352436366844,3461.4989051192483
7.021404167221262,4232.440130167616
7.0414558980756805,4726.176360538575
7.061507628930099,4811.232155590134
7.081559359784517,4429.184405821608
7.101611090638935,3690.5024900320464
7.121662821493353,2789.867588515866
7.141714552347772,1914.5993822162748
7.16176628320219,1206.6294541658367
7.181818014056608,696.4353494491791
7.201869744911026,389.8781344287298
7.221921475765445,229.09736197459696
7.241973206619863,142.91624218145142
7.262024937474281,113.61091036930996
7.282076668328699,108.21872931587593
7.302128399183117,126.36459077395392
7.322180130037536,175.36310556385442
7.342231860891954,257.9806970086436
7.362283591746372,413.65061959473894
7.38233532260079,631.8229538697695
7.402387053455209,900.6349015161807
7.422438784309627,1208.973880710808
7.442490515164045,1474.0816344161644
7.462542246018463,1620.7958476004694
7.482593976872881,1630.2673308421536
7.5026457077273,1486.553983635412
7.522697438581718,1236.1692286324753
7.542749169436136,927.173810005256
7.562800900290554,661.5033939291064
7.582852631144973,430.57737924943183
7.602904361999391,271.7190365621755
7.622956092853809,186.47568738701847
7.643007823708227,132.4132112599799
7.663059554562645,102.12322029895051
7.6831112854170645,92.6517370572664
7.703163016271482,88.29110368361975
7.7232147471259,82.10181760489547
7.743266477980318,76.00630858797005
7.763318208834737,78.2100695402431
7.783369939689155,75.30298062447866
7.803421670543573,72.77099995590964
7.823473401397991,80.3669419616167
7.84352513225241,81.53915523410237
7.863576863106828,91.99529762467444
7.883628593961246,110.93826410804266
7.903680324815664,141.88469450166403
7.923732055670082,198.9949251371653
7.943783786524501,279.50253269148027
7.963835517378919,386.59593726577
7.983887248233337,518.1651549695603
8.003938979087756,634.5893771928357
8.023990709942174,710.3143545954092
8.044042440796591,741.2607849890306
8.064094171651009,714.018548536464
8.084145902505428,631.213402968077
8.104197633359847,533.0757077955777
8.124249364214265,420.5432336369546
8.144301095068682,340.1762916753379
8.164352825923102,281.7062936437533
8.184404556777519,269.1870558936065
8.204456287631938,272.0472562784715
8.224508018486356,293.05331812141446
8.244559749340775,299.8521551018313
8.264611480195192,310.7771828013976
8.28466321104961,295.3977446663858
8.30471494190403,260.8408973935086
8.324766672758447,220.28231816550482
8.344818403612866,170.62736394301237
8.364870134467283,132.8820965689742
8.3849218653217,98.98168872868895
8.40497359617612,78.53828925653907
8.425025327030538,66.01905150639226
8.445077057884957,60.533093391159376
8.465128788739376,58.704440686081746
8.485180519593792,57.57911594449551
8.505232250448211,59.17332599507601
8.52528398130263,64.75306117210773
8.545335712157048,82.75825703748745
8.565387443011467,101.84188911355396
8.585439173865883,137.10206434992256
8.605490904720302,180.56773249369076
8.625542635574721,233.5986609409419
8.645594366429139,310.68340573959875
8.665646097283558,380.547316779744
8.685697828137974,429.4520545078456
8.705749558992393,451.6303296232743
8.725801289846812,451.2083328451794
8.74585302070123,412.57218338405215
8.765904751555649,363.38611447055393
8.785956482410068,299.10193860744045
8.806008213264484,260.5126776772126
8.826059944118903,216.15612744635533
8.84611167497332,199.7451416315561
8.86616340582774,183.56859847125403
8.886215136682159,180.00507012289762
8.906266867536575,173.3937872660785
8.926318598390994,160.4994412687363
8.946370329245411,139.91537620388812
8.96642206009983,118.90931436094513
8.98647379095425,102.92032532424076
9.006525521808667,88.80687752351344
9.026577252663085,76.52208242786375
9.046628983517502,75.7249774025735
9.066680714371921,73.0523311413062
9.08673244522634,75.63120034077464
9.106784176080758,71.59878668342398
9.126835906935176,73.5681049811999
9.146887637789593,66.39415975358766
9.166939368644012,71.0830128435303
9.186991099498432,66.58171387718536
9.207042830352849,68.87925189125725
9.227094561207267,72.77099995590964
9.247146292061686,74.08387882109358
9.267198022916103,78.63206631833793
9.287249753770523,90.8699728830882
9.30730148462494,94.80860947864001
9.32735321547936,102.59210560794477
9.347404946333777,109.95360495915472
9.367456677188194,109.67227377375815
9.387508408042613,101.27922674276084
9.407560138897031,88.05666102912262
9.42761186975145,80.55449608521441
9.447663600605868,66.67549093898423
9.467715331460285,54.39069584333453
9.487767062314704,42.856117242075655
9.507818793169124,38.35481827573073
9.527870524023541,34.181739025681786
9.547922254877959,29.867994182934563
9.567973985732376,28.555115317750627
9.588025716586795,27.148459390767837
9.608077447441215,27.336013514365543
9.628129178295632,26.023134649181607
9.648180909150051,26.679574081773573
9.668232640004467,28.320672663253493
9.688284370858886,29.02400062674489
9.708336101713305,34.697512865575476
9.728387832567723,39.245700362819825
9.748439563422142,41.44946131509286
9.768491294276558,43.93455345276246
9.788543025130977,39.94902832631122
9.808594755985396,40.60546775890319
9.828646486839814,35.58839495266457
9.848698217694233,32.915748691397276
9.868749948548652,30.336879491928826
9.888801679403068,27.85178735425923
9.908853410257487,25.929357587382754
9.928905141111905,24.382036067701684
9.948956871966324,28.086230008756363
9.969008602820743,31.884201011609896
9.989060333675159,38.214152683032445
10.009112064529578,47.451193270219434
10.029163795383996,55.32846646132305
10.049215526238415,68.50414364406184
10.069267257092834,72.72411142501022
10.08931898794725,74.97476090818267
10.109370718801669,71.50500962162513
10.129422449656087,65.55016619739799
10.149474180510506,57.48533888269666
10.169525911364925,46.18520293593492
10.189577642219342,38.82370358472499
10.20962937307376,30.571322146425956
10.22968110392818,25.038475500293654
10.249732834782597,22.459606300825204
10.269784565637016,19.130520606965938
10.289836296491433,18.333415581675688
10.30988802734585,21.09983890474184
10.32993975820027,23.069157202517747
10.349991489054688,23.819373696908567
10.370043219909107,26.023134649181607
10.390094950763524,26.163800241879883
10.410146681617944,24.991586969394227
10.430198412472361,27.054682328968983
10.450250143326778,23.39737691881373
10.470301874181198,21.943832460931517
10.490353605035615,18.56785823617282
10.510405335890034,17.348756432787738
10.530457066744452,15.754546382207241
10.55050879759887,14.347890455224453
10.570560528453289,14.488556047922732
10.590612259307708,14.394778986123878
10.610663990162125,15.238772542313553
10.630715721016543,13.691451022632485
10.65076745187096,16.739205531095195
10.67081918272538,15.52010372771011
10.690870913579799,18.849189421569378
10.710922644434216,19.130520606965938
10.730974375288636,19.505628854161348
10.751026106143051,21.850055399132664
10.77107783699747,20.86539625024471
10.79112956785189,21.61561274463553
10.811181298706307,21.146727435641267
10.831233029560726,22.2720521772275
10.851284760415142,20.912284781144137
10.871336491269561,22.50649483172463
10.89138822212398,22.412717769925777
10.911439952978398,24.006927820506274
10.931491683832817,22.318940708126927
10.951543414687237,20.537176533948728
10.971595145541652,23.39737691881373
10.991646876396072,21.850055399132664
